# Wlen(nm) Transmission
1.921314571305012123e+03 nan
1.921321103637825900e+03 nan
1.921327814857231715e+03 nan
1.921334313976333988e+03 nan
1.921341022404476462e+03 nan
1.921347556951364822e+03 nan
1.921354196274734250e+03 nan
1.921360799494233788e+03 nan
1.921367369537335435e+03 nan
1.921374041604853574e+03 nan
1.921380542192162920e+03 3.238435788257184589e-01
1.921387283283134821e+03 3.324707675952413011e-01
1.921393781609168173e+03 3.408565603844538328e-01
1.921400457157182473e+03 3.489770216988873353e-01
1.921407022674665541e+03 3.567765772612900288e-01
1.921413628342154652e+03 3.642124473711804700e-01
1.921420263307608593e+03 3.712603883340619970e-01
1.921426798918944769e+03 3.779010913867015264e-01
1.921433503507908654e+03 3.841252259987466000e-01
1.921440001220579688e+03 3.899060119727223994e-01
1.921446710941499987e+03 3.952140593360297660e-01
1.921453240807653856e+03 3.999960043426430967e-01
1.921459880047436400e+03 4.042001086133208965e-01
1.921466479961868117e+03 4.077492659816557286e-01
1.921473048544785115e+03 4.105409845651803447e-01
1.921479718683134706e+03 4.124422211596548427e-01
1.921486216433426080e+03 4.132636392872266473e-01
1.921492956971364038e+03 4.127550938916118572e-01
1.921499453889568940e+03 4.105594929429597362e-01
1.921506124648332388e+03 4.061974371359773905e-01
1.921512691564001443e+03 3.989970652662489514e-01
1.921519291064831577e+03 3.880576018353191214e-01
1.921525928805180911e+03 3.722500124030065360e-01
1.921532456872216471e+03 3.503417230740027977e-01
1.921539165613018668e+03 3.214652344763109793e-01
1.921545661916777135e+03 2.859918600493973062e-01
1.921552362139988873e+03 2.464077779557316550e-01
1.921558898110374912e+03 2.076743715497097742e-01
1.921565526474231774e+03 1.762714598775301789e-01
1.921572133870413836e+03 1.578592471914600504e-01
1.921578690198951790e+03 1.551590424110912136e-01
1.921585369196805459e+03 1.670326541693800682e-01
1.921591864885643872e+03 1.884492797590191504e-01
1.921598592517548923e+03 2.116040694325795335e-01
1.921605099597352364e+03 2.282375037130463524e-01
1.921611754768126957e+03 2.319726797640684623e-01
1.921618333875195731e+03 2.197103527022170599e-01
1.921624916408773743e+03 1.923599755128884148e-01
1.921631567719086433e+03 1.550109619062952915e-01
1.921638077439370591e+03 1.153957651662343986e-01
1.921644801128935569e+03 8.101472282328707475e-02
1.921651296021294911e+03 5.718076887240843703e-02
1.921657975941656559e+03 4.535940794693315431e-02
1.921664528815887707e+03 4.245156155084488236e-02
1.921671135496819716e+03 4.279607986302413902e-02
1.921677761176221793e+03 4.161428546437588583e-02
1.921684294441524344e+03 3.661223715267896556e-02
1.921690993102207813e+03 2.818246700946135455e-02
1.921697487378560709e+03 1.904190370747972649e-02
1.921704189989955921e+03 1.277402864634486802e-02
1.921710718688847237e+03 1.259155942931522616e-02
1.921717347458224140e+03 2.101037209732176808e-02
1.921723949564567874e+03 3.981284546630794313e-02
1.921730504315626149e+03 6.978723283827664714e-02
1.921737180005635082e+03 1.103986345551101200e-01
1.921743673665506321e+03 1.595590985539407924e-01
1.921750396908155381e+03 2.137328663685958419e-01
1.921756903490428613e+03 2.686894968580369469e-01
1.921763552288118490e+03 3.208132953147018740e-01
1.921770132880479878e+03 3.678069093962519354e-01
1.921776707056804298e+03 4.087616168095346558e-01
1.921783361835570076e+03 4.438031004909677169e-01
1.921789861214094344e+03 4.735883501427332609e-01
1.921796590355610533e+03 4.989384360452541189e-01
1.921803083216985897e+03 5.206096725567853634e-01
1.921809749981629011e+03 5.392912531117556307e-01
1.921816311120308683e+03 5.555158083328132212e-01
1.921822902660185719e+03 5.697146249106733729e-01
1.921829538588363903e+03 5.822357904041113308e-01
1.921836054726937618e+03 5.933591374824798148e-01
1.921842765621063108e+03 6.033229483244052505e-01
1.921849257864866786e+03 6.122977629838645131e-01
1.921855940533879220e+03 6.204392427159418633e-01
1.921862484280403351e+03 6.278635872608969715e-01
1.921869091120893245e+03 6.346747636169552953e-01
1.921875710260364940e+03 6.409513128752244437e-01
1.921882241095692052e+03 6.467595103274974555e-01
1.921888935804663788e+03 6.521581928335208334e-01
1.921895427430420114e+03 6.571771955464901227e-01
1.921902123939990133e+03 6.618538163131396646e-01
1.921908652357110213e+03 6.662026094330508741e-01
1.921915272434045846e+03 6.702429416201647339e-01
1.921921876847918838e+03 6.739812959774061918e-01
1.921928420315475250e+03 6.774339134784239658e-01
1.921935100902757085e+03 6.806446781492504483e-01
1.921941591909989256e+03 6.836754158376198154e-01
1.921948300195077536e+03 6.866173322016545510e-01
1.921954815346773103e+03 6.895210856955719114e-01
1.921961446594758627e+03 6.924074364530489190e-01
1.921968038347368292e+03 6.952437047442329154e-01
1.921974592381402772e+03 6.979575206441270829e-01
1.921981260911685240e+03 7.004483066274879155e-01
1.921987751299916681e+03 7.026163386465349436e-01
1.921994469294254486e+03 7.044241312490118201e-01
1.922000973245733576e+03 7.058558689880165549e-01
1.922007613598143507e+03 7.069286840074527900e-01
1.922014194755053268e+03 7.076207315783076268e-01
1.922020757288584946e+03 7.078567555616527285e-01
1.922027415827787763e+03 7.076006229037341555e-01
1.922033905596540762e+03 7.070046547508238577e-01
1.922040631232630631e+03 7.065105808784208907e-01
1.922047126050328643e+03 7.066252611131614847e-01
1.922053773439309225e+03 7.076712237829230201e-01
1.922060346067311912e+03 7.096747838552366350e-01
1.922066915032129145e+03 7.123748952076365271e-01
1.922073565647401665e+03 7.151744322532483933e-01
1.922080056010971020e+03 7.173277620859725978e-01
1.922086784790508318e+03 7.184141049728518524e-01
1.922093273756895314e+03 7.185465727674184011e-01
1.922099926113360880e+03 7.183114392716670737e-01
1.922106492280478733e+03 7.183998652740187785e-01
1.922113065607139333e+03 7.192805226238878635e-01
1.922119710366860318e+03 7.210961019368415936e-01
1.922126204486527968e+03 7.236629197321899909e-01
1.922132928015951620e+03 7.265127465436362897e-01
1.922139416361765143e+03 7.290527416047172249e-01
1.922146071615398796e+03 7.308576869630583062e-01
1.922152633390885740e+03 7.317024059124426216e-01
1.922159209008714924e+03 7.314920665934473432e-01
1.922165849982496184e+03 7.301294197684200515e-01
1.922172345787229915e+03 7.274006806591077900e-01
1.922179066136507572e+03 7.229324308602890214e-01
1.922185553861269455e+03 7.161047378758517157e-01
1.922192209940521479e+03 7.059598038433470002e-01
1.922198769394862893e+03 6.910605839232519809e-01
1.922205345231953970e+03 6.695325288286996246e-01
1.922211984490637406e+03 6.396187464810336731e-01
1.922218479908172185e+03 6.009487122904999534e-01
1.922225199148504316e+03 5.562458739970919108e-01
1.922231686251735937e+03 5.124098369020523291e-01
1.922238341083822661e+03 4.788275129618502213e-01
1.922244900288736972e+03 4.631925299094954984e-01
1.922251474271948609e+03 4.688977910062286369e-01
1.922258113887610307e+03 4.948166782106970807e-01
1.922264606844447599e+03 5.352509543209190701e-01
1.922271327048266585e+03 5.813020981830194778e-01
1.922277813529488867e+03 6.248088755392195992e-01
1.922284465040392888e+03 6.613981079017950959e-01
1.922291026068831798e+03 6.901103503915120285e-01
1.922297596123788253e+03 7.117856867662599729e-01
1.922304238169738028e+03 7.278688578719567648e-01
1.922310726591144203e+03 7.397893140667780587e-01
1.922317449832117518e+03 7.487269223926331652e-01
1.922323935690851158e+03 7.555372441084056145e-01
1.922330581805319298e+03 7.608434173392720767e-01
1.922337146731468692e+03 7.650469531617141161e-01
1.922343710782559128e+03 7.684037539253629756e-01
1.922350357333340753e+03 7.710630876183960369e-01
1.922356842752349849e+03 7.730792304482575483e-01
1.922363563887280407e+03 7.744296995767326885e-01
1.922370052732141176e+03 7.750119946349829370e-01
1.922376691373685389e+03 7.747559948813831365e-01
1.922383262272966931e+03 7.737068102863694508e-01
1.922389818243343825e+03 7.721950550669811619e-01
1.922396471374737757e+03 7.707268506159263843e-01
1.922402956170436482e+03 7.695489591091704273e-01
1.922409668362760385e+03 7.684774051386014104e-01
1.922416164649677057e+03 7.668939991752304897e-01
1.922422793740570569e+03 7.637607558182041290e-01
1.922429372689642832e+03 7.579506920334924125e-01
1.922435918501220840e+03 7.492007267263779413e-01
1.922442580290243086e+03 7.390510173243745040e-01
1.922449064462151910e+03 7.305763130627441759e-01
1.922455765633263354e+03 7.265561807059096600e-01
1.922462271439773303e+03 7.282328315329777979e-01
1.922468888901051287e+03 7.355281820655943381e-01
1.922475477977809305e+03 7.469507296416698638e-01
1.922482011551265259e+03 7.596083160835835901e-01
1.922488684076170330e+03 7.707803692088188718e-01
1.922495167623806992e+03 7.793220777621862050e-01
1.922501855693862808e+03 7.853856696826867489e-01
1.922508373098739867e+03 7.896308525315226534e-01
1.922514976850199673e+03 7.927737848791625019e-01
1.922521578133776757e+03 7.952953794283081912e-01
1.922528097388548531e+03 7.974161257050834672e-01
1.922534782728828759e+03 7.992175398440225509e-01
1.922541265651712592e+03 8.007354640640665933e-01
1.922547938539628831e+03 8.020121434687673689e-01
1.922554469622886018e+03 8.030637593449931888e-01
1.922561057583085358e+03 8.039158218552585611e-01
1.922567673153854230e+03 8.045961403417037916e-01
1.922574176008138920e+03 8.051308057463552048e-01
1.922580876244526280e+03 8.055483685473779909e-01
1.922587358542175707e+03 8.058570945220724369e-01
1.922594014165628778e+03 8.060716751105644340e-01
1.922600561008518753e+03 8.061889400081888590e-01
1.922607131094773422e+03 8.062075334222675860e-01
1.922613763034345538e+03 8.061188702797915662e-01
1.922620247405100145e+03 8.059022312450523362e-01
1.922626964619566252e+03 8.055361795647654199e-01
1.922633446291499467e+03 8.049797410459621494e-01
1.922640082566924548e+03 8.042137601299982341e-01
1.922646647251940522e+03 8.032387138344797561e-01
1.922653197380325537e+03 8.021214858418619364e-01
1.922659847771554723e+03 8.009602459168410071e-01
1.922666329001471468e+03 7.998009384079829420e-01
1.922673030422822649e+03 7.986438438182833499e-01
1.922679528895986095e+03 7.974280589366287142e-01
1.922686143738575538e+03 7.960319964393797187e-01
1.922692728349452636e+03 7.942683683538750428e-01
1.922699256434800418e+03 7.919679523840271740e-01
1.922705927361781050e+03 7.889986058969781224e-01
1.922712407965156444e+03 7.852214225473558296e-01
1.922719086478079362e+03 7.804690778462171075e-01
1.922725606351933948e+03 7.744919813388787544e-01
1.922732197675637735e+03 7.669379799854529889e-01
1.922738804297352544e+03 7.572816920876186408e-01
1.922745308253252460e+03 7.447529622887681944e-01
1.922752001801321967e+03 7.282550900215682965e-01
1.922758481777672841e+03 7.062216492911838062e-01
1.922765135295233677e+03 6.765172497251920047e-01
1.922771678655639334e+03 6.366419410972524728e-01
1.922778244373162579e+03 5.844938733100323303e-01
1.922784875091935874e+03 5.199251667634309237e-01
1.922791354625341683e+03 4.468227865710096003e-01
1.922798069291815182e+03 3.743013438665408477e-01
1.922804550435314695e+03 3.151190712869556543e-01
1.922811176869334986e+03 2.814554090382484497e-01
1.922817745803395837e+03 2.805985741713240555e-01
1.922824283826199007e+03 3.126319583334232211e-01
1.922830940729495296e+03 3.704711142849850813e-01
1.922837419635050082e+03 4.419902357657893299e-01
1.922844105739995030e+03 5.143809202069796749e-01
1.922850613934373541e+03 5.783800750932048818e-01
1.922857211195429500e+03 6.299202388429425703e-01
1.922863807791493400e+03 6.689380823921149410e-01
1.922870316029791638e+03 6.973558559275105928e-01
1.922877001206319164e+03 7.175126665422164596e-01
1.922883479483539531e+03 7.313616423170573588e-01
1.922890134936646746e+03 7.403055296443458166e-01
1.922896672271137959e+03 7.452128779474431752e-01
1.922903238268558198e+03 7.464761992391275580e-01
1.922909864616220148e+03 7.439663021734821413e-01
1.922916342449564581e+03 7.371427389709195310e-01
1.922923055048076321e+03 7.254071930916894395e-01
1.922929534167097700e+03 7.087069544604878146e-01
1.922936156876810855e+03 6.884441547902953040e-01
1.922942725441893799e+03 6.681083799781593058e-01
1.922949258083761606e+03 6.525506735861055230e-01
1.922955916273861931e+03 6.459076181544953776e-01
1.922962393478042713e+03 6.501089659457949255e-01
1.922969071852772231e+03 6.646376290031449363e-01
1.922975583682008619e+03 6.865510614586416427e-01
1.922982171555523792e+03 7.112447334585058067e-01
1.922988773442924412e+03 7.344191887619383463e-01
1.922995270636073656e+03 7.536747628759173923e-01
1.923001962760700280e+03 7.684989200806447984e-01
1.923008439335232879e+03 7.794535489384220028e-01
1.923015081392489037e+03 7.874641803415696195e-01
1.923021628024553365e+03 7.933632295438741711e-01
1.923028178967816984e+03 7.977795486516996437e-01
1.923034816270510646e+03 8.011427771890345939e-01
1.923041292400235079e+03 8.037346107858894806e-01
1.923047987592878371e+03 8.057561755920071844e-01
1.923054480017414789e+03 8.073358591023885866e-01
1.923061083662257261e+03 8.085708122458993286e-01
1.923067667191010059e+03 8.095251279075368345e-01
1.923074179108719591e+03 8.102450309178567123e-01
1.923080853920930622e+03 8.107656475299465093e-01
1.923087329420176275e+03 8.111037166888297456e-01
1.923093984717612329e+03 8.112783349637451291e-01
1.923100515520864747e+03 8.112895273605541524e-01
1.923107078657101965e+03 8.111290078982916762e-01
1.923113701177655685e+03 8.107734028631131684e-01
1.923120176231503592e+03 8.101969207446806376e-01
1.923126882132100945e+03 8.094104507003672122e-01
1.923133361258739797e+03 8.084864528010567986e-01
1.923139974563889382e+03 8.075948791277648420e-01
1.923146545841856096e+03 8.069112231657943335e-01
1.923153066372045942e+03 8.065383784774258213e-01
1.923159729980762449e+03 8.064973630815858163e-01
1.923166204403301208e+03 8.067185728561775404e-01
1.923172866827299231e+03 8.070503600465468441e-01
1.923179387912197853e+03 8.073053818367200707e-01
1.923185957126728908e+03 8.073722386852606459e-01
1.923192570976661273e+03 8.072248655378090332e-01
1.923199046802108796e+03 8.068875241538552290e-01
1.923205753596600971e+03 8.064100930881724638e-01
1.923212227387343546e+03 8.058298803011610945e-01
1.923218844235520692e+03 8.051822257816330097e-01
1.923225409376819471e+03 8.044818812386819173e-01
1.923231932401147105e+03 8.037361324245814176e-01
1.923238590921548166e+03 8.029469671435961464e-01
1.923245064265957353e+03 8.021041481071393697e-01
1.923251727696635271e+03 8.012023911598290526e-01
1.923258245179898950e+03 8.002298847082610633e-01
1.923264814351779478e+03 7.991809196528251169e-01
1.923271425648870718e+03 7.980445637815652971e-01
1.923277900382156986e+03 7.968038565687428632e-01
1.923284605672782391e+03 7.954454691201707783e-01
1.923291078384562752e+03 7.939525390222242907e-01
1.923297692652218757e+03 7.923373708280172512e-01
1.923304257777231442e+03 7.906430530294021874e-01
1.923310777171086556e+03 7.889163389513565994e-01
1.923317436724616527e+03 7.871558121743299496e-01
1.923323908989471875e+03 7.853216187511247171e-01
1.923330567300676648e+03 7.833753825418358074e-01
1.923337087305291107e+03 7.812800688142282901e-01
1.923343650307303960e+03 7.790666325423850624e-01
1.923350265175603454e+03 7.768762289750045236e-01
1.923356736993287768e+03 7.748791170864780531e-01
1.923363438295364858e+03 7.731861584166001000e-01
1.923369914231710027e+03 7.718123933135349057e-01
1.923376519789021813e+03 7.706825349939475656e-01
1.923383091024402120e+03 7.696265255189559396e-01
1.923389600656895482e+03 7.684600247084223401e-01
1.923396267371272643e+03 7.670699079051317426e-01
1.923402738555148517e+03 7.654195257668219288e-01
1.923409385614448411e+03 7.635263808428617294e-01
1.923415914269673067e+03 7.614165497590054121e-01
1.923422464968321947e+03 7.591148132590788133e-01
1.923429089538152994e+03 7.566296107328929210e-01
1.923435560274265754e+03 7.539491393591659651e-01
1.923442247781793185e+03 7.510586278884043843e-01
1.923448734910074791e+03 7.479458635524759424e-01
1.923455325620934900e+03 7.446303887218731488e-01
1.923461909099616605e+03 7.411574681778221318e-01
1.923468402833575283e+03 7.375762610815291831e-01
1.923475082842798429e+03 7.339216229084425391e-01
1.923481552944266241e+03 7.302248322607659548e-01
1.923488182612941955e+03 7.265406118706255745e-01
1.923494726054321063e+03 7.229117437848172623e-01
1.923501258309820059e+03 7.193498708330506863e-01
1.923507898717792159e+03 7.158419776097885157e-01
1.923514368370904094e+03 7.123464916943610392e-01
1.923521035942550043e+03 7.087832194554886112e-01
1.923527540400923954e+03 7.050321491035852484e-01
1.923534110122933043e+03 7.009849288974397963e-01
1.923540711984136806e+03 6.965733865422625293e-01
1.923547183676094164e+03 6.917692597716472713e-01
1.923553883120451019e+03 6.865620627422680533e-01
1.923560352138081726e+03 6.809240569008926380e-01
1.923566958271119802e+03 6.748056048470257862e-01
1.923573522640487454e+03 6.681170628700543457e-01
1.923580030306753997e+03 6.607155110405138476e-01
1.923586692695770353e+03 6.523675342419369416e-01
1.923593161264450600e+03 6.426853782716246410e-01
1.923599802752584537e+03 6.310644808728735899e-01
1.923606330685499415e+03 6.167504493009573485e-01
1.923612873269958982e+03 5.991847468217150752e-01
1.923619499659201665e+03 5.786040752172796342e-01
1.923625967778684753e+03 5.567715574565951231e-01
1.923632643565530998e+03 5.369219463947564330e-01
1.923639136117828002e+03 5.220992477453755276e-01
1.923645712563911275e+03 5.137564589204703935e-01
1.923652304009400495e+03 5.118030633326703382e-01
1.923658780934049901e+03 5.145857847772095095e-01
1.923665471453310147e+03 5.189229202753586900e-01
1.923671938936126935e+03 5.215564940746272304e-01
1.923678548186813714e+03 5.207714763437416572e-01
1.923685105745019655e+03 5.163418564668850186e-01
1.923691615036924759e+03 5.087812331568957180e-01
1.923698272106025797e+03 4.987619727701924632e-01
1.923704739139050162e+03 4.867571737974169532e-01
1.923711380136867774e+03 4.729912069394535123e-01
1.923717904864713319e+03 4.575206979052047762e-01
1.923724445466215457e+03 4.402827766271359411e-01
1.923731070142265025e+03 4.210924978672799801e-01
1.923737536725249356e+03 3.996555366835141676e-01
1.923744208412272428e+03 3.755599731015535347e-01
1.923750701367132933e+03 3.482669518497314431e-01
1.923757272220123014e+03 3.171190351313415978e-01
1.923763865560680415e+03 2.815675536949625024e-01
1.923770335398709676e+03 2.416285327317612974e-01
1.923777029305799715e+03 1.983344237171761892e-01
1.923783495250930628e+03 1.541049308671068596e-01
1.923790095296845493e+03 1.125789815048493098e-01
1.923796658359922958e+03 7.761605509774001377e-02
1.923803156952898462e+03 5.203461846685669689e-02
1.923809821020262234e+03 3.680767347463432398e-02
1.923816286514757394e+03 3.062307809608722647e-02
1.923822914694580732e+03 3.029098317795098083e-02
1.923829448538643874e+03 3.212096561616926971e-02
1.923835974827365362e+03 3.314146972073964137e-02
1.923842610113652427e+03 3.166887542990497184e-02
1.923849075157263769e+03 2.756187797116008489e-02
1.923855730411527247e+03 2.185984313072027174e-02
1.923862236095492563e+03 1.589641861029163911e-02
1.923868789020305485e+03 1.070548421949383926e-02
1.923875396584619011e+03 6.909329334102238575e-03
1.923881861177098699e+03 4.657285466226531931e-03
1.923888542445879239e+03 3.644361344466794540e-03
1.923895021029118880e+03 3.334155804348728786e-03
1.923901599529915529e+03 3.222038056506607972e-03
1.923908180431810933e+03 2.989090609615825938e-03
1.923914655983363446e+03 2.530830013280424909e-03
1.923921339385083911e+03 1.912002822897298799e-03
1.923927803338171088e+03 1.274107175081349609e-03
1.923934406354390148e+03 7.418852034374844853e-04
1.923940961653876911e+03 3.739274087794642980e-04
1.923947461282057247e+03 1.611243692291183468e-04
1.923954119519938558e+03 5.827346133025665230e-05
1.923960583021296770e+03 nan
1.923967209491922404e+03 4.003572720163374255e-06
