# Wlen(nm) Flux Flux_err
1.921314571305012123e+03 nan 4.114624147915170449e-03
1.921321103637825900e+03 nan 4.114624147915170449e-03
1.921327814857231715e+03 nan 4.114624147915170449e-03
1.921334313976333988e+03 nan 4.114624147915170449e-03
1.921341022404476462e+03 nan 4.114624147915170449e-03
1.921347556951364822e+03 nan 4.114624147915170449e-03
1.921354196274734250e+03 nan 4.114624147915170449e-03
1.921360799494233788e+03 nan 4.114624147915170449e-03
1.921367369537335435e+03 nan 4.114624147915170449e-03
1.921374041604853574e+03 nan 4.114624147915170449e-03
1.921380542192162920e+03 1.912622945994007784e-01 4.114624147915170449e-03
1.921387283283134821e+03 1.956209024647306005e-01 4.114624147915170449e-03
1.921393781609168173e+03 2.023185589188453148e-01 4.114624147915170449e-03
1.921400457157182473e+03 2.035709069006165772e-01 4.114624147915170449e-03
1.921407022674665541e+03 2.135229898778111535e-01 4.114624147915170449e-03
1.921413628342154652e+03 2.186741960969350307e-01 4.114624147915170449e-03
1.921420263307608593e+03 2.225421945081776098e-01 4.114624147915170449e-03
1.921426798918944769e+03 2.267740116688842511e-01 4.114624147915170449e-03
1.921433503507908654e+03 2.316059025408446215e-01 4.114624147915170449e-03
1.921440001220579688e+03 2.345860265974002434e-01 4.114624147915170449e-03
1.921446710941499987e+03 2.390432751838612313e-01 4.114624147915170449e-03
1.921453240807653856e+03 2.430264850698896917e-01 4.114624147915170449e-03
1.921459880047436400e+03 2.455300398950353569e-01 4.114624147915170449e-03
1.921466479961868117e+03 2.469166644610897854e-01 4.114624147915170449e-03
1.921473048544785115e+03 2.490827008880207583e-01 4.114624147915170449e-03
1.921479718683134706e+03 2.483167117468256524e-01 4.114624147915170449e-03
1.921486216433426080e+03 2.502003964801217117e-01 4.114624147915170449e-03
1.921492956971364038e+03 2.496179247607081264e-01 4.114624147915170449e-03
1.921499453889568940e+03 2.445380139470580139e-01 4.114624147915170449e-03
1.921506124648332388e+03 2.425183651560038345e-01 4.114624147915170449e-03
1.921512691564001443e+03 2.378270304725906559e-01 4.114624147915170449e-03
1.921519291064831577e+03 2.335155011157945548e-01 4.114624147915170449e-03
1.921525928805180911e+03 2.254036636983058894e-01 4.114624147915170449e-03
1.921532456872216471e+03 2.072030590437503594e-01 4.114624147915170449e-03
1.921539165613018668e+03 1.885927888565827049e-01 4.114624147915170449e-03
1.921545661916777135e+03 1.701462807502681640e-01 4.114624147915170449e-03
1.921552362139988873e+03 1.423597106337684548e-01 4.114624147915170449e-03
1.921558898110374912e+03 1.142587206691012269e-01 4.114624147915170449e-03
1.921565526474231774e+03 9.427377846808231154e-02 4.114624147915170449e-03
1.921572133870413836e+03 8.099730890833341246e-02 4.114624147915170449e-03
1.921578690198951790e+03 7.787547949285555937e-02 4.114624147915170449e-03
1.921585369196805459e+03 8.326908971522894998e-02 4.114624147915170449e-03
1.921591864885643872e+03 9.697778407733910477e-02 4.114624147915170449e-03
1.921598592517548923e+03 1.190888529397417517e-01 4.114624147915170449e-03
1.921605099597352364e+03 1.317841339445587900e-01 4.114624147915170449e-03
1.921611754768126957e+03 1.357060615428004879e-01 4.114624147915170449e-03
1.921618333875195731e+03 1.323532691750428647e-01 4.114624147915170449e-03
1.921624916408773743e+03 1.146649109559176871e-01 4.114624147915170449e-03
1.921631567719086433e+03 9.240291573897815858e-02 4.114624147915170449e-03
1.921638077439370591e+03 6.738760503563509530e-02 4.114624147915170449e-03
1.921644801128935569e+03 4.516271018250560265e-02 4.114624147915170449e-03
1.921651296021294911e+03 2.896008451966231370e-02 4.114624147915170449e-03
1.921657975941656559e+03 2.080909803089701915e-02 4.114624147915170449e-03
1.921664528815887707e+03 2.147985426288409605e-02 4.114624147915170449e-03
1.921671135496819716e+03 2.358408140159719280e-02 4.114624147915170449e-03
1.921677761176221793e+03 2.438035235532335504e-02 4.114624147915170449e-03
1.921684294441524344e+03 2.238243381068012045e-02 4.114624147915170449e-03
1.921690993102207813e+03 2.042879499809541546e-02 4.114624147915170449e-03
1.921697487378560709e+03 1.325690721763996514e-02 4.114624147915170449e-03
1.921704189989955921e+03 5.865873808461700978e-03 4.114624147915170449e-03
1.921710718688847237e+03 8.367538493410712347e-03 4.114624147915170449e-03
1.921717347458224140e+03 8.562218134624599575e-03 4.114624147915170449e-03
1.921723949564567874e+03 2.145137115194875946e-02 4.114624147915170449e-03
1.921730504315626149e+03 3.980898348047492985e-02 4.114624147915170449e-03
1.921737180005635082e+03 6.071825871848647582e-02 4.114624147915170449e-03
1.921743673665506321e+03 9.122382104191911756e-02 4.114624147915170449e-03
1.921750396908155381e+03 1.224521422057864295e-01 4.114624147915170449e-03
1.921756903490428613e+03 1.604774129255761017e-01 4.114624147915170449e-03
1.921763552288118490e+03 1.948528193263958097e-01 4.114624147915170449e-03
1.921770132880479878e+03 2.248963047297648510e-01 4.114624147915170449e-03
1.921776707056804298e+03 2.502143632283139740e-01 4.114624147915170449e-03
1.921783361835570076e+03 2.708769635912151585e-01 4.114624147915170449e-03
1.921789861214094344e+03 2.907879824266284552e-01 4.114624147915170449e-03
1.921796590355610533e+03 3.061015566879874972e-01 4.114624147915170449e-03
1.921803083216985897e+03 3.225638310392127117e-01 4.114624147915170449e-03
1.921809749981629011e+03 3.370474136219480110e-01 4.114624147915170449e-03
1.921816311120308683e+03 3.480552948426421933e-01 4.114624147915170449e-03
1.921822902660185719e+03 3.538792214249746881e-01 4.114624147915170449e-03
1.921829538588363903e+03 3.613134369352977160e-01 4.114624147915170449e-03
1.921836054726937618e+03 3.728454954828561707e-01 4.114624147915170449e-03
1.921842765621063108e+03 3.805319798210524129e-01 4.114624147915170449e-03
1.921849257864866786e+03 3.828667302881522683e-01 4.114624147915170449e-03
1.921855940533879220e+03 3.910849533746942885e-01 4.114624147915170449e-03
1.921862484280403351e+03 3.931715639128539053e-01 4.114624147915170449e-03
1.921869091120893245e+03 3.974576091253146926e-01 4.114624147915170449e-03
1.921875710260364940e+03 3.987046622933225759e-01 4.114624147915170449e-03
1.921882241095692052e+03 4.029486696448850713e-01 4.114624147915170449e-03
1.921888935804663788e+03 4.113147952369926585e-01 4.114624147915170449e-03
1.921895427430420114e+03 4.100970545054155592e-01 4.114624147915170449e-03
1.921902123939990133e+03 4.139055999307754696e-01 4.114624147915170449e-03
1.921908652357110213e+03 4.184803118337447891e-01 4.114624147915170449e-03
1.921915272434045846e+03 4.214224112512340303e-01 4.114624147915170449e-03
1.921921876847918838e+03 4.253629678413319848e-01 4.114624147915170449e-03
1.921928420315475250e+03 4.313707420773074119e-01 4.114624147915170449e-03
1.921935100902757085e+03 4.292535362964586820e-01 4.114624147915170449e-03
1.921941591909989256e+03 4.282322792289650071e-01 4.114624147915170449e-03
1.921948300195077536e+03 4.312260983463445108e-01 4.114624147915170449e-03
1.921954815346773103e+03 4.336107607869290614e-01 4.114624147915170449e-03
1.921961446594758627e+03 4.363976246313200358e-01 4.114624147915170449e-03
1.921968038347368292e+03 4.403614703190559254e-01 4.114624147915170449e-03
1.921974592381402772e+03 4.412683871450011064e-01 4.114624147915170449e-03
1.921981260911685240e+03 4.413184494619225573e-01 4.114624147915170449e-03
1.921987751299916681e+03 4.409486653438514092e-01 4.114624147915170449e-03
1.921994469294254486e+03 4.435546238566084876e-01 4.114624147915170449e-03
1.922000973245733576e+03 4.488343130534401815e-01 4.114624147915170449e-03
1.922007613598143507e+03 4.470500557977483691e-01 4.114624147915170449e-03
1.922014194755053268e+03 4.449111396875788382e-01 4.114624147915170449e-03
1.922020757288584946e+03 4.493403371980233540e-01 4.114624147915170449e-03
1.922027415827787763e+03 4.443979709030873027e-01 4.114624147915170449e-03
1.922033905596540762e+03 4.483291578749795114e-01 4.114624147915170449e-03
1.922040631232630631e+03 4.476765254380589143e-01 4.114624147915170449e-03
1.922047126050328643e+03 4.459357388544454848e-01 4.114624147915170449e-03
1.922053773439309225e+03 4.457501219283023230e-01 4.114624147915170449e-03
1.922060346067311912e+03 4.506557066187117933e-01 4.114624147915170449e-03
1.922066915032129145e+03 4.525603777256915206e-01 4.114624147915170449e-03
1.922073565647401665e+03 4.499650724718496919e-01 4.114624147915170449e-03
1.922080056010971020e+03 4.451798767013753211e-01 4.114624147915170449e-03
1.922086784790508318e+03 4.439592805430798705e-01 4.114624147915170449e-03
1.922093273756895314e+03 4.463100387704538319e-01 4.114624147915170449e-03
1.922099926113360880e+03 4.503979838262129887e-01 4.114624147915170449e-03
1.922106492280478733e+03 4.511156919023411316e-01 4.114624147915170449e-03
1.922113065607139333e+03 4.518835703191255160e-01 4.114624147915170449e-03
1.922119710366860318e+03 4.508005004350861267e-01 4.114624147915170449e-03
1.922126204486527968e+03 4.541849905411979860e-01 4.114624147915170449e-03
1.922132928015951620e+03 4.526501250781700403e-01 4.114624147915170449e-03
1.922139416361765143e+03 4.542028542953883141e-01 4.114624147915170449e-03
1.922146071615398796e+03 4.572424419575422672e-01 4.114624147915170449e-03
1.922152633390885740e+03 4.581568531316466686e-01 4.114624147915170449e-03
1.922159209008714924e+03 4.573002612148328039e-01 4.114624147915170449e-03
1.922165849982496184e+03 4.592736714900428341e-01 4.114624147915170449e-03
1.922172345787229915e+03 4.534017455037725464e-01 4.114624147915170449e-03
1.922179066136507572e+03 4.487011117087521539e-01 4.114624147915170449e-03
1.922185553861269455e+03 4.443692157742789028e-01 4.114624147915170449e-03
1.922192209940521479e+03 4.341723783089971311e-01 4.114624147915170449e-03
1.922198769394862893e+03 4.267962380126589239e-01 4.114624147915170449e-03
1.922205345231953970e+03 4.153269704119272876e-01 4.114624147915170449e-03
1.922211984490637406e+03 3.990448428016145632e-01 4.114624147915170449e-03
1.922218479908172185e+03 3.747118778144298279e-01 4.114624147915170449e-03
1.922225199148504316e+03 3.401361622947363661e-01 4.114624147915170449e-03
1.922231686251735937e+03 3.087982846067912623e-01 4.114624147915170449e-03
1.922238341083822661e+03 2.845879641933927728e-01 4.114624147915170449e-03
1.922244900288736972e+03 2.674076929771755928e-01 4.114624147915170449e-03
1.922251474271948609e+03 2.694575760487452065e-01 4.114624147915170449e-03
1.922258113887610307e+03 2.901488209330665424e-01 4.114624147915170449e-03
1.922264606844447599e+03 3.235919098179645959e-01 4.114624147915170449e-03
1.922271327048266585e+03 3.601352877191603130e-01 4.114624147915170449e-03
1.922277813529488867e+03 3.900100800699335402e-01 4.114624147915170449e-03
1.922284465040392888e+03 4.125148987111231236e-01 4.114624147915170449e-03
1.922291026068831798e+03 4.344056457254890091e-01 4.114624147915170449e-03
1.922297596123788253e+03 4.417013732824545125e-01 4.114624147915170449e-03
1.922304238169738028e+03 4.510987901075026452e-01 4.114624147915170449e-03
1.922310726591144203e+03 4.601633809570652711e-01 4.114624147915170449e-03
1.922317449832117518e+03 4.625521682941043933e-01 4.114624147915170449e-03
1.922323935690851158e+03 4.666712707406284188e-01 4.114624147915170449e-03
1.922330581805319298e+03 4.792658508603991896e-01 4.114624147915170449e-03
1.922337146731468692e+03 4.822801897568098628e-01 4.114624147915170449e-03
1.922343710782559128e+03 4.788895931555254837e-01 4.114624147915170449e-03
1.922350357333340753e+03 4.747024080572820326e-01 4.114624147915170449e-03
1.922356842752349849e+03 4.778688514385516228e-01 4.114624147915170449e-03
1.922363563887280407e+03 4.781331059417545659e-01 4.114624147915170449e-03
1.922370052732141176e+03 4.818214014366974940e-01 4.114624147915170449e-03
1.922376691373685389e+03 4.863257087760169406e-01 4.114624147915170449e-03
1.922383262272966931e+03 4.842665977184559267e-01 4.114624147915170449e-03
1.922389818243343825e+03 4.813110853254736199e-01 4.114624147915170449e-03
1.922396471374737757e+03 4.775513046840482723e-01 4.114624147915170449e-03
1.922402956170436482e+03 4.785666236554503850e-01 4.114624147915170449e-03
1.922409668362760385e+03 4.770761347580055878e-01 4.114624147915170449e-03
1.922416164649677057e+03 4.788344051918993483e-01 4.114624147915170449e-03
1.922422793740570569e+03 4.802856720308286143e-01 4.114624147915170449e-03
1.922429372689642832e+03 4.719217107294171876e-01 4.114624147915170449e-03
1.922435918501220840e+03 4.638702244635691252e-01 4.114624147915170449e-03
1.922442580290243086e+03 4.536348135444351892e-01 4.114624147915170449e-03
1.922449064462151910e+03 4.480806006261452978e-01 4.114624147915170449e-03
1.922455765633263354e+03 4.499310040899174856e-01 4.114624147915170449e-03
1.922462271439773303e+03 4.459615798584903867e-01 4.114624147915170449e-03
1.922468888901051287e+03 4.555363299863760540e-01 4.114624147915170449e-03
1.922475477977809305e+03 4.567883960630549911e-01 4.114624147915170449e-03
1.922482011551265259e+03 4.698563892273280862e-01 4.114624147915170449e-03
1.922488684076170330e+03 4.771406023309769928e-01 4.114624147915170449e-03
1.922495167623806992e+03 4.834771047485619810e-01 4.114624147915170449e-03
1.922501855693862808e+03 4.859177624530163220e-01 4.114624147915170449e-03
1.922508373098739867e+03 4.902223201953817555e-01 4.114624147915170449e-03
1.922514976850199673e+03 4.918902826144012641e-01 4.114624147915170449e-03
1.922521578133776757e+03 4.931525267104745480e-01 4.114624147915170449e-03
1.922528097388548531e+03 4.924517443028503250e-01 4.114624147915170449e-03
1.922534782728828759e+03 4.947484232293748452e-01 4.114624147915170449e-03
1.922541265651712592e+03 4.964621716551789188e-01 4.114624147915170449e-03
1.922547938539628831e+03 4.979495505612926420e-01 4.114624147915170449e-03
1.922554469622886018e+03 4.997314663771532106e-01 4.114624147915170449e-03
1.922561057583085358e+03 4.956106719430444230e-01 4.114624147915170449e-03
1.922567673153854230e+03 5.003392871663860930e-01 4.114624147915170449e-03
1.922574176008138920e+03 4.984598483598518537e-01 4.114624147915170449e-03
1.922580876244526280e+03 5.013509634609730758e-01 4.114624147915170449e-03
1.922587358542175707e+03 5.007338068082094473e-01 4.114624147915170449e-03
1.922594014165628778e+03 4.977058097175779405e-01 4.114624147915170449e-03
1.922600561008518753e+03 4.961844322857728029e-01 4.114624147915170449e-03
1.922607131094773422e+03 4.971323261662299320e-01 4.114624147915170449e-03
1.922613763034345538e+03 4.999626737209167393e-01 4.114624147915170449e-03
1.922620247405100145e+03 4.990125512525380724e-01 4.114624147915170449e-03
1.922626964619566252e+03 4.979921329907689431e-01 4.114624147915170449e-03
1.922633446291499467e+03 4.971999023697695752e-01 4.114624147915170449e-03
1.922640082566924548e+03 4.974732672685762136e-01 4.114624147915170449e-03
1.922646647251940522e+03 4.958828994924574518e-01 4.114624147915170449e-03
1.922653197380325537e+03 4.971918408802247225e-01 4.114624147915170449e-03
1.922659847771554723e+03 4.942586067000950267e-01 4.114624147915170449e-03
1.922666329001471468e+03 4.998138190656364888e-01 4.114624147915170449e-03
1.922673030422822649e+03 4.928115201768713538e-01 4.114624147915170449e-03
1.922679528895986095e+03 4.958076222258333554e-01 4.114624147915170449e-03
1.922686143738575538e+03 4.933212265028448229e-01 4.114624147915170449e-03
1.922692728349452636e+03 4.935983163754255054e-01 4.114624147915170449e-03
1.922699256434800418e+03 4.883936795303218670e-01 4.114624147915170449e-03
1.922705927361781050e+03 4.897732392376933919e-01 4.114624147915170449e-03
1.922712407965156444e+03 4.868886102696367013e-01 4.114624147915170449e-03
1.922719086478079362e+03 4.883467088281270296e-01 4.114624147915170449e-03
1.922725606351933948e+03 4.811203186169815682e-01 4.114624147915170449e-03
1.922732197675637735e+03 4.729502853210973967e-01 4.114624147915170449e-03
1.922738804297352544e+03 4.655585890178390307e-01 4.114624147915170449e-03
1.922745308253252460e+03 4.550006839907970724e-01 4.114624147915170449e-03
1.922752001801321967e+03 4.462485974040926173e-01 4.114624147915170449e-03
1.922758481777672841e+03 4.338612955078109401e-01 4.114624147915170449e-03
1.922765135295233677e+03 4.147899588652790293e-01 4.114624147915170449e-03
1.922771678655639334e+03 3.883832917487094472e-01 4.114624147915170449e-03
1.922778244373162579e+03 3.520707762991755474e-01 4.114624147915170449e-03
1.922784875091935874e+03 3.102465358770601922e-01 4.114624147915170449e-03
1.922791354625341683e+03 2.655119388086765730e-01 4.114624147915170449e-03
1.922798069291815182e+03 2.130934356187038081e-01 4.114624147915170449e-03
1.922804550435314695e+03 1.751141672697894558e-01 4.114624147915170449e-03
1.922811176869334986e+03 1.474377966123431583e-01 4.114624147915170449e-03
1.922817745803395837e+03 1.437479501376193181e-01 4.114624147915170449e-03
1.922824283826199007e+03 1.679382843401985292e-01 4.114624147915170449e-03
1.922830940729495296e+03 2.078862740400234665e-01 4.114624147915170449e-03
1.922837419635050082e+03 2.602544312824137118e-01 4.114624147915170449e-03
1.922844105739995030e+03 3.103001902821789226e-01 4.114624147915170449e-03
1.922850613934373541e+03 3.544376331970909844e-01 4.114624147915170449e-03
1.922857211195429500e+03 3.843526356416385736e-01 4.114624147915170449e-03
1.922863807791493400e+03 4.053045309629669801e-01 4.114624147915170449e-03
1.922870316029791638e+03 4.212980184170885822e-01 4.114624147915170449e-03
1.922877001206319164e+03 4.338890227710315850e-01 4.114624147915170449e-03
1.922883479483539531e+03 4.464639638797299748e-01 4.114624147915170449e-03
1.922890134936646746e+03 4.532123015094162710e-01 4.114624147915170449e-03
1.922896672271137959e+03 4.565140210567621981e-01 4.114624147915170449e-03
1.922903238268558198e+03 4.588514499340140551e-01 4.114624147915170449e-03
1.922909864616220148e+03 4.574464904907044049e-01 4.114624147915170449e-03
1.922916342449564581e+03 4.485784067261134878e-01 4.114624147915170449e-03
1.922923055048076321e+03 4.420649039642693401e-01 4.114624147915170449e-03
1.922929534167097700e+03 4.345328523408594212e-01 4.114624147915170449e-03
1.922936156876810855e+03 4.207254450417655667e-01 4.114624147915170449e-03
1.922942725441893799e+03 4.069236483977537455e-01 4.114624147915170449e-03
1.922949258083761606e+03 3.949802319602265799e-01 4.114624147915170449e-03
1.922955916273861931e+03 3.906465234130366837e-01 4.114624147915170449e-03
1.922962393478042713e+03 3.907341339196071517e-01 4.114624147915170449e-03
1.922969071852772231e+03 4.015340427171645854e-01 4.114624147915170449e-03
1.922975583682008619e+03 4.166630464192194738e-01 4.114624147915170449e-03
1.922982171555523792e+03 4.327582704419540294e-01 4.114624147915170449e-03
1.922988773442924412e+03 4.527064856603235099e-01 4.114624147915170449e-03
1.922995270636073656e+03 4.648226053991816875e-01 4.114624147915170449e-03
1.923001962760700280e+03 4.753979470337403868e-01 4.114624147915170449e-03
1.923008439335232879e+03 4.780809185499034220e-01 4.114624147915170449e-03
1.923015081392489037e+03 4.842671937008963257e-01 4.114624147915170449e-03
1.923021628024553365e+03 4.819742965705240412e-01 4.114624147915170449e-03
1.923028178967816984e+03 4.920364307215092659e-01 4.114624147915170449e-03
1.923034816270510646e+03 4.880763470898672463e-01 4.114624147915170449e-03
1.923041292400235079e+03 4.925085450228360862e-01 4.114624147915170449e-03
1.923047987592878371e+03 4.913173381608228474e-01 4.114624147915170449e-03
1.923054480017414789e+03 4.942846733752533916e-01 4.114624147915170449e-03
1.923061083662257261e+03 4.952727768406331443e-01 4.114624147915170449e-03
1.923067667191010059e+03 5.015948473261023777e-01 4.114624147915170449e-03
1.923074179108719591e+03 4.971793709429925823e-01 4.114624147915170449e-03
1.923080853920930622e+03 4.986480570873191853e-01 4.114624147915170449e-03
