# Wlen(nm) Transmission
1.921314571305012123e+03 nan
1.921321103637825900e+03 nan
1.921327814857231715e+03 nan
1.921334313976333988e+03 nan
1.921341022404476462e+03 nan
1.921347556951364822e+03 nan
1.921354196274734250e+03 nan
1.921360799494233788e+03 nan
1.921367369537335435e+03 nan
1.921374041604853574e+03 nan
1.921380542192162920e+03 3.142046321744650372e-01
1.921387283283134821e+03 3.228098087920533987e-01
1.921393781609168173e+03 3.311761828062381174e-01
1.921400457157182473e+03 3.392785326242562793e-01
1.921407022674665541e+03 3.470621274753449836e-01
1.921413628342154652e+03 3.544859597694143827e-01
1.921420263307608593e+03 3.615269704327200295e-01
1.921426798918944769e+03 3.681664191912436546e-01
1.921433503507908654e+03 3.743950230624104591e-01
1.921440001220579688e+03 3.801857850029010666e-01
1.921446710941499987e+03 3.855083389979013231e-01
1.921453240807653856e+03 3.903081049564586791e-01
1.921459880047436400e+03 3.945314337214734790e-01
1.921466479961868117e+03 3.980993045535527464e-01
1.921473048544785115e+03 4.009073475093101746e-01
1.921479718683134706e+03 4.028208229957674913e-01
1.921486216433426080e+03 4.036489886739481614e-01
1.921492956971364038e+03 4.031404885850202180e-01
1.921499453889568940e+03 4.009382169091315062e-01
1.921506124648332388e+03 3.965637375215736449e-01
1.921512691564001443e+03 3.893492060093302065e-01
1.921519291064831577e+03 3.784026258866701187e-01
1.921525928805180911e+03 3.626126966850917732e-01
1.921532456872216471e+03 3.407790736985597535e-01
1.921539165613018668e+03 3.120779631299955836e-01
1.921545661916777135e+03 2.769189426069880722e-01
1.921552362139988873e+03 2.377904580360152842e-01
1.921558898110374912e+03 1.995840454475162340e-01
1.921565526474231774e+03 1.686437526096666861e-01
1.921572133870413836e+03 1.505017455406366667e-01
1.921578690198951790e+03 1.478132807806891158e-01
1.921585369196805459e+03 1.594401816494583901e-01
1.921591864885643872e+03 1.804296387864527673e-01
1.921598592517548923e+03 2.031303548269554060e-01
1.921605099597352364e+03 2.194547610847066565e-01
1.921611754768126957e+03 2.231630988452836251e-01
1.921618333875195731e+03 2.112501710453020820e-01
1.921624916408773743e+03 1.846685073464457982e-01
1.921631567719086433e+03 1.484373947776125025e-01
1.921638077439370591e+03 1.100683886695110747e-01
1.921644801128935569e+03 7.678751515175911979e-02
1.921651296021294911e+03 5.370364438347077080e-02
1.921657975941656559e+03 4.221398720739925198e-02
1.921664528815887707e+03 3.930954304213434697e-02
1.921671135496819716e+03 3.956453919772542904e-02
1.921677761176221793e+03 3.845695694712487206e-02
1.921684294441524344e+03 3.381979142801119081e-02
1.921690993102207813e+03 2.598992332785902970e-02
1.921697487378560709e+03 1.749602942644542039e-02
1.921704189989955921e+03 1.169060399313618173e-02
1.921710718688847237e+03 1.158314904362592150e-02
1.921717347458224140e+03 1.958037668016144803e-02
1.921723949564567874e+03 3.748634836730604242e-02
1.921730504315626149e+03 6.620940854814479082e-02
1.921737180005635082e+03 1.053840637824133841e-01
1.921743673665506321e+03 1.531185948937554275e-01
1.921750396908155381e+03 2.060632459614585299e-01
1.921756903490428613e+03 2.601086422830145017e-01
1.921763552288118490e+03 3.116643725373186569e-01
1.921770132880479878e+03 3.583827870806799987e-01
1.921776707056804298e+03 3.992696519904796459e-01
1.921783361835570076e+03 4.343713496523827211e-01
1.921789861214094344e+03 4.642881081846793601e-01
1.921796590355610533e+03 4.898016314057705989e-01
1.921803083216985897e+03 5.116464351101981389e-01
1.921809749981629011e+03 5.305012546151968156e-01
1.921816311120308683e+03 5.468924323690539380e-01
1.921822902660185719e+03 5.612467761637357500e-01
1.921829538588363903e+03 5.739106404632275948e-01
1.921836054726937618e+03 5.851653781237131646e-01
1.921842765621063108e+03 5.952519203427023564e-01
1.921849257864866786e+03 6.043421293785268267e-01
1.921855940533879220e+03 6.125919798372218006e-01
1.921862484280403351e+03 6.201187658690303639e-01
1.921869091120893245e+03 6.270266142801582676e-01
1.921875710260364940e+03 6.333929883216964374e-01
1.921882241095692052e+03 6.392841918903283682e-01
1.921888935804663788e+03 6.447602510771078821e-01
1.921895427430420114e+03 6.498521939760307786e-01
1.921902123939990133e+03 6.545981968847571775e-01
1.921908652357110213e+03 6.590134853342046739e-01
1.921915272434045846e+03 6.631174812281672715e-01
1.921921876847918838e+03 6.669165469584106276e-01
1.921928420315475250e+03 6.704269020001268897e-01
1.921935100902757085e+03 6.736925882186745040e-01
1.921941591909989256e+03 6.767759811570773776e-01
1.921948300195077536e+03 6.797690481830073184e-01
1.921954815346773103e+03 6.827233705653387164e-01
1.921961446594758627e+03 6.856602467847133786e-01
1.921968038347368292e+03 6.885471542659801214e-01
1.921974592381402772e+03 6.913113041930564195e-01
1.921981260911685240e+03 6.938514199414996808e-01
1.921987751299916681e+03 6.960675150980282222e-01
1.921994469294254486e+03 6.979219309055200160e-01
1.922000973245733576e+03 6.993980549247568179e-01
1.922007613598143507e+03 7.005088695368856255e-01
1.922014194755053268e+03 7.012256381654141668e-01
1.922020757288584946e+03 7.014680857938713210e-01
1.922027415827787763e+03 7.011985967828086030e-01
1.922033905596540762e+03 7.005729921364114432e-01
1.922040631232630631e+03 7.000442055339062275e-01
1.922047126050328643e+03 7.001348871350686620e-01
1.922053773439309225e+03 7.011774917149846686e-01
1.922060346067311912e+03 7.032000701367455697e-01
1.922066915032129145e+03 7.059363816821049298e-01
1.922073565647401665e+03 7.087772684468390816e-01
1.922080056010971020e+03 7.109628556071575511e-01
1.922086784790508318e+03 7.120638640502349181e-01
1.922093273756895314e+03 7.121949873446405954e-01
1.922099926113360880e+03 7.119523722546845512e-01
1.922106492280478733e+03 7.120395529896601516e-01
1.922113065607139333e+03 7.129334388166738146e-01
1.922119710366860318e+03 7.147791713657687396e-01
1.922126204486527968e+03 7.173898502972562152e-01
1.922132928015951620e+03 7.202885739180635571e-01
1.922139416361765143e+03 7.228719095982857334e-01
1.922146071615398796e+03 7.247066555556926915e-01
1.922152633390885740e+03 7.255636297979178861e-01
1.922159209008714924e+03 7.253460521101413594e-01
1.922165849982496184e+03 7.239548582829109513e-01
1.922172345787229915e+03 7.211729909021939999e-01
1.922179066136507572e+03 7.166211325954058298e-01
1.922185553861269455e+03 7.096704174430495948e-01
1.922192209940521479e+03 6.993506798048396700e-01
1.922198769394862893e+03 6.842107405599817671e-01
1.922205345231953970e+03 6.623642947738648257e-01
1.922211984490637406e+03 6.320530146017577788e-01
1.922218479908172185e+03 5.929257335066975276e-01
1.922225199148504316e+03 5.477520914165131538e-01
1.922231686251735937e+03 5.034929149002012050e-01
1.922238341083822661e+03 4.695956337718349416e-01
1.922244900288736972e+03 4.538088836130967363e-01
1.922251474271948609e+03 4.595570495629637264e-01
1.922258113887610307e+03 4.857033735923664275e-01
1.922264606844447599e+03 5.265085285328525710e-01
1.922271327048266585e+03 5.730210733989368199e-01
1.922277813529488867e+03 6.170210629552819181e-01
1.922284465040392888e+03 6.540821774517708853e-01
1.922291026068831798e+03 6.832111223530934474e-01
1.922297596123788253e+03 7.052326862271335317e-01
1.922304238169738028e+03 7.215909668387744391e-01
1.922310726591144203e+03 7.337250350279828082e-01
1.922317449832117518e+03 7.428272686644932232e-01
1.922323935690851158e+03 7.497648793808158185e-01
1.922330581805319298e+03 7.551705857235152530e-01
1.922337146731468692e+03 7.594529726715345541e-01
1.922343710782559128e+03 7.628725029419977099e-01
1.922350357333340753e+03 7.655810770039023216e-01
1.922356842752349849e+03 7.676341251349176886e-01
1.922363563887280407e+03 7.690084606879430407e-01
1.922370052732141176e+03 7.695995625666131046e-01
1.922376691373685389e+03 7.693356193818206012e-01
1.922383262272966931e+03 7.682627335320125761e-01
1.922389818243343825e+03 7.667179424674217536e-01
1.922396471374737757e+03 7.652173004646883880e-01
1.922402956170436482e+03 7.640126852148008130e-01
1.922409668362760385e+03 7.629165709125241834e-01
1.922416164649677057e+03 7.612993739061207910e-01
1.922422793740570569e+03 7.581035732809916494e-01
1.922429372689642832e+03 7.521813465701229218e-01
1.922435918501220840e+03 7.432653127385222547e-01
1.922442580290243086e+03 7.329244868245552436e-01
1.922449064462151910e+03 7.242899901938179008e-01
1.922455765633263354e+03 7.201926424851418096e-01
1.922462271439773303e+03 7.218988668530326169e-01
1.922468888901051287e+03 7.293292711074059742e-01
1.922475477977809305e+03 7.409643588224251731e-01
1.922482011551265259e+03 7.538588441256491857e-01
1.922488684076170330e+03 7.652420865011354545e-01
1.922495167623806992e+03 7.739472242702393201e-01
1.922501855693862808e+03 7.801279090923534110e-01
1.922508373098739867e+03 7.844556625662856275e-01
1.922514976850199673e+03 7.876597509942988573e-01
1.922521578133776757e+03 7.902301680398416961e-01
1.922528097388548531e+03 7.923917033632716933e-01
1.922534782728828759e+03 7.942273759502460617e-01
1.922541265651712592e+03 7.957738836108158020e-01
1.922547938539628831e+03 7.970742167513571452e-01
1.922554469622886018e+03 7.981450868959047984e-01
1.922561057583085358e+03 7.990124347032295793e-01
1.922567673153854230e+03 7.997047104155189379e-01
1.922574176008138920e+03 8.002486290223771448e-01
1.922580876244526280e+03 8.006731418699808422e-01
1.922587358542175707e+03 8.009868864381515241e-01
1.922594014165628778e+03 8.012047766052319275e-01
1.922600561008518753e+03 8.013237951143584725e-01
1.922607131094773422e+03 8.013426066610706000e-01
1.922613763034345538e+03 8.012528297360815843e-01
1.922620247405100145e+03 8.010344477435216159e-01
1.922626964619566252e+03 8.006669801480471582e-01
1.922633446291499467e+03 8.001101902544250910e-01
1.922640082566924548e+03 7.993449162218710935e-01
1.922646647251940522e+03 7.983703364830053717e-01
1.922653197380325537e+03 7.972492531377212144e-01
1.922659847771554723e+03 7.960750891179418920e-01
1.922666329001471468e+03 7.948916576238455045e-01
1.922673030422822649e+03 7.936984042990961052e-01
1.922679528895986095e+03 7.924343229415762302e-01
1.922686143738575538e+03 7.909798069640274765e-01
1.922692728349452636e+03 7.891513603408328859e-01
1.922699256434800418e+03 7.867814836048185878e-01
1.922705927361781050e+03 7.837363021976655464e-01
1.922712407965156444e+03 7.798733757174669545e-01
1.922719086478079362e+03 7.750207987116165542e-01
1.922725606351933948e+03 7.689229990537335135e-01
1.922732197675637735e+03 7.612198909556304738e-01
1.922738804297352544e+03 7.513768142438778108e-01
1.922745308253252460e+03 7.386138720119622691e-01
1.922752001801321967e+03 7.218238943707823152e-01
1.922758481777672841e+03 6.994296472996103242e-01
1.922765135295233677e+03 6.692926926154901812e-01
1.922771678655639334e+03 6.289323653518281709e-01
1.922778244373162579e+03 5.762984902556430589e-01
1.922784875091935874e+03 5.113247287495662485e-01
1.922791354625341683e+03 4.379782435346847302e-01
1.922798069291815182e+03 3.653843261592350511e-01
1.922804550435314695e+03 3.062222666075412048e-01
1.922811176869334986e+03 2.725862912298635532e-01
1.922817745803395837e+03 2.717320067379511150e-01
1.922824283826199007e+03 3.037370865374601214e-01
1.922830940729495296e+03 3.615440901086032222e-01
1.922837419635050082e+03 4.331124759751955877e-01
1.922844105739995030e+03 5.057141319871305551e-01
1.922850613934373541e+03 5.700806192214422641e-01
1.922857211195429500e+03 6.220709480230802724e-01
1.922863807791493400e+03 6.615400164809185357e-01
1.922870316029791638e+03 6.903533995330548567e-01
1.922877001206319164e+03 7.108258521471679803e-01
1.922883479483539531e+03 7.249081122848618497e-01
1.922890134936646746e+03 7.340086969232207936e-01
1.922896672271137959e+03 7.390025031701069613e-01
1.922903238268558198e+03 7.402863355230014930e-01
1.922909864616220148e+03 7.377296338529661934e-01
1.922916342449564581e+03 7.307843284161583686e-01
1.922923055048076321e+03 7.188453096310177814e-01
1.922929534167097700e+03 7.018644379626706176e-01
1.922936156876810855e+03 6.812702724145919264e-01
1.922942725441893799e+03 6.606074180076787483e-01
1.922949258083761606e+03 6.448014058211144484e-01
1.922955916273861931e+03 6.380528135675139767e-01
1.922962393478042713e+03 6.423220367231960992e-01
1.922969071852772231e+03 6.570846628691221492e-01
1.922975583682008619e+03 6.793539305600947431e-01
1.922982171555523792e+03 7.044553529908816891e-01
1.922988773442924412e+03 7.280227530382635814e-01
1.922995270636073656e+03 7.476159876817779493e-01
1.923001962760700280e+03 7.627090242948865173e-01
1.923008439335232879e+03 7.738680762515571798e-01
1.923015081392489037e+03 7.820312146458066049e-01
1.923021628024553365e+03 7.880443578616569411e-01
1.923028178967816984e+03 7.925473345219139487e-01
1.923034816270510646e+03 7.959771432840113681e-01
1.923041292400235079e+03 7.986204547834689915e-01
1.923047987592878371e+03 8.006819564415001977e-01
1.923054480017414789e+03 8.022926070261857667e-01
1.923061083662257261e+03 8.035513752969585255e-01
1.923067667191010059e+03 8.045235131628349912e-01
1.923074179108719591e+03 8.052562609166251661e-01
1.923080853920930622e+03 8.057857262866898740e-01
1.923087329420176275e+03 8.061292431836238892e-01
1.923093984717612329e+03 8.063060609323531303e-01
1.923100515520864747e+03 8.063162746731340480e-01
1.923107078657101965e+03 8.061512417595300128e-01
1.923113701177655685e+03 8.057867418735678022e-01
1.923120176231503592e+03 8.051963645302977479e-01
1.923126882132100945e+03 8.043912219284814480e-01
1.923133361258739797e+03 8.034455409727588870e-01
1.923139974563889382e+03 8.025327077205134385e-01
1.923146545841856096e+03 8.018319093534719277e-01
1.923153066372045942e+03 8.014480906863031828e-01
1.923159729980762449e+03 8.014024938855336400e-01
1.923166204403301208e+03 8.016240227683134600e-01
1.923172866827299231e+03 8.019576415364482180e-01
1.923179387912197853e+03 8.022120633834625147e-01
1.923185957126728908e+03 8.022732660272328120e-01
1.923192570976661273e+03 8.021144908411362850e-01
1.923199046802108796e+03 8.017608441905806904e-01
1.923205753596600971e+03 8.012640760158218356e-01
1.923212227387343546e+03 8.006639701604416626e-01
1.923218844235520692e+03 7.999980643214358311e-01
1.923225409376819471e+03 7.992824023387276045e-01
1.923231932401147105e+03 7.985244336996547565e-01
1.923238590921548166e+03 7.977252507289348538e-01
1.923245064265957353e+03 7.968728561840826563e-01
1.923251727696635271e+03 7.959599689980045856e-01
1.923258245179898950e+03 7.949736450520914488e-01
1.923264814351779478e+03 7.939080866143831683e-01
1.923271425648870718e+03 7.927531614053696662e-01
1.923277900382156986e+03 7.914934106663545910e-01
1.923284605672782391e+03 7.901170905354327756e-01
1.923291078384562752e+03 7.886082588543743555e-01
1.923297692652218757e+03 7.869783075337538625e-01
1.923304257777231442e+03 7.852665633498168152e-01
1.923310777171086556e+03 7.835149469036482017e-01
1.923317436724616527e+03 7.817191063287426411e-01
1.923323908989471875e+03 7.798377225261839962e-01
1.923330567300676648e+03 7.778322796590727561e-01
1.923337087305291107e+03 7.756690802238942473e-01
1.923343650307303960e+03 7.733853963572236978e-01
1.923350265175603454e+03 7.711283287795753782e-01
1.923356736993287768e+03 7.690721939084669279e-01
1.923363438295364858e+03 7.673298677810456159e-01
1.923369914231710027e+03 7.659167108183602135e-01
1.923376519789021813e+03 7.647561290154405444e-01
1.923383091024402120e+03 7.636750582147110444e-01
1.923389600656895482e+03 7.624855437352104914e-01
1.923396267371272643e+03 7.610718268152967259e-01
1.923402738555148517e+03 7.593958034368244459e-01
1.923409385614448411e+03 7.574739205512815987e-01
1.923415914269673067e+03 7.553313918769276603e-01
1.923422464968321947e+03 7.529922316551540540e-01
1.923429089538152994e+03 7.504643330905274023e-01
1.923435560274265754e+03 7.477355055851930832e-01
1.923442247781793185e+03 7.447907620567554288e-01
1.923448734910074791e+03 7.416183706073793402e-01
1.923455325620934900e+03 7.382390805470315787e-01
1.923461909099616605e+03 7.346998483190986251e-01
1.923468402833575283e+03 7.310512181284120059e-01
1.923475082842798429e+03 7.273287131183197030e-01
1.923481552944266241e+03 7.235640010428339153e-01
1.923488182612941955e+03 7.198119354149635774e-01
1.923494726054321063e+03 7.161148981755313114e-01
1.923501258309820059e+03 7.124834073188900385e-01
1.923507898717792159e+03 7.089033378728024637e-01
1.923514368370904094e+03 7.053324043996838100e-01
1.923521035942550043e+03 7.016897807513168273e-01
1.923527540400923954e+03 6.978552201527511434e-01
1.923534110122933043e+03 6.937209524268698191e-01
1.923540711984136806e+03 6.892205274009791660e-01
1.923547183676094164e+03 6.843277224280857052e-01
1.923553883120451019e+03 6.790331108182509068e-01
1.923560352138081726e+03 6.733087892590139401e-01
1.923566958271119802e+03 6.671037477298995544e-01
1.923573522640487454e+03 6.603257864345442041e-01
1.923580030306753997e+03 6.528280336741136836e-01
1.923586692695770353e+03 6.443722342938374981e-01
1.923593161264450600e+03 6.345656096716039141e-01
1.923599802752584537e+03 6.227977294975087785e-01
1.923606330685499415e+03 6.083083906185617895e-01
1.923612873269958982e+03 5.905372209039048137e-01
1.923619499659201665e+03 5.697283952638155791e-01
1.923625967778684753e+03 5.476651101107132824e-01
1.923632643565530998e+03 5.276107925970275891e-01
1.923639136117828002e+03 5.126348001418762346e-01
1.923645712563911275e+03 5.042019188842807864e-01
1.923652304009400495e+03 5.022184398347696588e-01
1.923658780934049901e+03 5.050135866627567527e-01
1.923665471453310147e+03 5.093775379829587058e-01
1.923671938936126935e+03 5.120252585363274100e-01
1.923678548186813714e+03 5.112270969334592463e-01
1.923685105745019655e+03 5.067552122852011509e-01
1.923691615036924759e+03 4.991281177749116171e-01
1.923698272106025797e+03 4.890254592116266008e-01
1.923704739139050162e+03 4.769283015615840005e-01
1.923711380136867774e+03 4.630683559385340708e-01
1.923717904864713319e+03 4.475099058894035364e-01
1.923724445466215457e+03 4.301988766742622095e-01
1.923731070142265025e+03 4.109583497335622670e-01
1.923737536725249356e+03 3.895025625394871183e-01
1.923744208412272428e+03 3.654346681267613417e-01
1.923750701367132933e+03 3.382406974759852858e-01
1.923757272220123014e+03 3.073009955594738218e-01
1.923763865560680415e+03 2.721220569994702854e-01
1.923770335398709676e+03 2.327837768443537791e-01
1.923777029305799715e+03 1.903630936420615538e-01
1.923783495250930628e+03 1.472614395974461698e-01
1.923790095296845493e+03 1.070011869136792415e-01
1.923796658359922958e+03 7.324797779082700688e-02
1.923803156952898462e+03 4.862860095169004720e-02
1.923809821020262234e+03 3.399621006901085152e-02
1.923816286514757394e+03 2.802586577552563032e-02
1.923822914694580732e+03 2.762937971924547820e-02
1.923829448538643874e+03 2.929506855288796160e-02
1.923835974827365362e+03 3.023082741195426415e-02
1.923842610113652427e+03 2.886515190006182577e-02
1.923849075157263769e+03 2.506910903932157639e-02
1.923855730411527247e+03 1.981350966691323989e-02
1.923862236095492563e+03 1.433466313026825201e-02
1.923868789020305485e+03 9.580902250963970607e-03
1.923875396584619011e+03 6.115130462714831600e-03
1.923881861177098699e+03 4.064281332842352955e-03
1.923888542445879239e+03 3.142119189124389401e-03
1.923895021029118880e+03 2.858305662422441773e-03
1.923901599529915529e+03 2.758228612962106141e-03
1.923908180431810933e+03 2.557535782861964160e-03
1.923914655983363446e+03 2.162852628538007929e-03
1.923921339385083911e+03 1.629745466977465746e-03
1.923927803338171088e+03 1.081259517585476428e-03
1.923934406354390148e+03 6.256114469897903260e-04
1.923940961653876911e+03 3.126829886933797154e-04
1.923947461282057247e+03 nan
1.923954119519938558e+03 4.757672440034772408e-05
1.923960583021296770e+03 1.387041171230468149e-05
1.923967209491922404e+03 3.146532487003827392e-06
