# Wlen(nm) Flux Flux_err
1.921314571305012123e+03 nan 5.219463736391608856e-03
1.921321103637825900e+03 nan 5.219463736391608856e-03
1.921327814857231715e+03 nan 5.219463736391608856e-03
1.921334313976333988e+03 nan 5.219463736391608856e-03
1.921341022404476462e+03 nan 5.219463736391608856e-03
1.921347556951364822e+03 nan 5.219463736391608856e-03
1.921354196274734250e+03 nan 5.219463736391608856e-03
1.921360799494233788e+03 nan 5.219463736391608856e-03
1.921367369537335435e+03 nan 5.219463736391608856e-03
1.921374041604853574e+03 nan 5.219463736391608856e-03
1.921380542192162920e+03 2.395975575577167782e-01 5.219463736391608856e-03
1.921387283283134821e+03 2.479838509473932251e-01 5.219463736391608856e-03
1.921393781609168173e+03 2.560002111193770968e-01 5.219463736391608856e-03
1.921400457157182473e+03 2.588812802379507616e-01 5.219463736391608856e-03
1.921407022674665541e+03 2.647437232303254673e-01 5.219463736391608856e-03
1.921413628342154652e+03 2.757058856119233847e-01 5.219463736391608856e-03
1.921420263307608593e+03 2.848718467300800361e-01 5.219463736391608856e-03
1.921426798918944769e+03 2.879142856896022007e-01 5.219463736391608856e-03
1.921433503507908654e+03 2.906436545174095887e-01 5.219463736391608856e-03
1.921440001220579688e+03 2.959796002838051554e-01 5.219463736391608856e-03
1.921446710941499987e+03 2.995730330962925181e-01 5.219463736391608856e-03
1.921453240807653856e+03 3.052801939034395229e-01 5.219463736391608856e-03
1.921459880047436400e+03 3.067249721914955263e-01 5.219463736391608856e-03
1.921466479961868117e+03 3.049643460316248111e-01 5.219463736391608856e-03
1.921473048544785115e+03 3.046851243839926449e-01 5.219463736391608856e-03
1.921479718683134706e+03 3.071810068714699860e-01 5.219463736391608856e-03
1.921486216433426080e+03 3.056703966720887289e-01 5.219463736391608856e-03
1.921492956971364038e+03 3.032637334264296491e-01 5.219463736391608856e-03
1.921499453889568940e+03 3.022965928910766875e-01 5.219463736391608856e-03
1.921506124648332388e+03 2.993564998223727791e-01 5.219463736391608856e-03
1.921512691564001443e+03 2.977412739029953181e-01 5.219463736391608856e-03
1.921519291064831577e+03 2.906047435773017051e-01 5.219463736391608856e-03
1.921525928805180911e+03 2.798099250539511917e-01 5.219463736391608856e-03
1.921532456872216471e+03 2.647438479893766683e-01 5.219463736391608856e-03
1.921539165613018668e+03 2.422484454108632668e-01 5.219463736391608856e-03
1.921545661916777135e+03 2.141785828046527951e-01 5.219463736391608856e-03
1.921552362139988873e+03 1.843388697509817375e-01 5.219463736391608856e-03
1.921558898110374912e+03 1.508425579520344395e-01 5.219463736391608856e-03
1.921565526474231774e+03 1.255029365346589654e-01 5.219463736391608856e-03
1.921572133870413836e+03 1.096598906038681320e-01 5.219463736391608856e-03
1.921578690198951790e+03 1.091137134658974883e-01 5.219463736391608856e-03
1.921585369196805459e+03 1.216952931054497145e-01 5.219463736391608856e-03
1.921591864885643872e+03 1.419796099419430302e-01 5.219463736391608856e-03
1.921598592517548923e+03 1.658339936819402671e-01 5.219463736391608856e-03
1.921605099597352364e+03 1.803316973517180011e-01 5.219463736391608856e-03
1.921611754768126957e+03 1.859987693940086673e-01 5.219463736391608856e-03
1.921618333875195731e+03 1.792750682028613207e-01 5.219463736391608856e-03
1.921624916408773743e+03 1.580759259113123649e-01 5.219463736391608856e-03
1.921631567719086433e+03 1.273128062409105421e-01 5.219463736391608856e-03
1.921638077439370591e+03 9.269658726180458885e-02 5.219463736391608856e-03
1.921644801128935569e+03 6.358813459948323144e-02 5.219463736391608856e-03
1.921651296021294911e+03 4.357204375219057846e-02 5.219463736391608856e-03
1.921657975941656559e+03 3.577938972827222897e-02 5.219463736391608856e-03
1.921664528815887707e+03 3.701951400833698030e-02 5.219463736391608856e-03
1.921671135496819716e+03 4.141074438426657622e-02 5.219463736391608856e-03
1.921677761176221793e+03 4.018478578584835925e-02 5.219463736391608856e-03
1.921684294441524344e+03 3.426370030226974506e-02 5.219463736391608856e-03
1.921690993102207813e+03 2.757030509948864630e-02 5.219463736391608856e-03
1.921697487378560709e+03 1.594515682805371440e-02 5.219463736391608856e-03
1.921704189989955921e+03 1.084287259642839618e-02 5.219463736391608856e-03
1.921710718688847237e+03 1.018347639798058805e-02 5.219463736391608856e-03
1.921717347458224140e+03 1.854492414631342401e-02 5.219463736391608856e-03
1.921723949564567874e+03 3.268734184641725049e-02 5.219463736391608856e-03
1.921730504315626149e+03 5.619377702762749782e-02 5.219463736391608856e-03
1.921737180005635082e+03 8.714470213408598287e-02 5.219463736391608856e-03
1.921743673665506321e+03 1.253032357952006404e-01 5.219463736391608856e-03
1.921750396908155381e+03 1.693081771542346847e-01 5.219463736391608856e-03
1.921756903490428613e+03 2.117512488583268848e-01 5.219463736391608856e-03
1.921763552288118490e+03 2.503980394895879424e-01 5.219463736391608856e-03
1.921770132880479878e+03 2.874487097881958664e-01 5.219463736391608856e-03
1.921776707056804298e+03 3.140182393283335038e-01 5.219463736391608856e-03
1.921783361835570076e+03 3.401938793402275452e-01 5.219463736391608856e-03
1.921789861214094344e+03 3.643405909774047879e-01 5.219463736391608856e-03
1.921796590355610533e+03 3.758120018096383630e-01 5.219463736391608856e-03
1.921803083216985897e+03 3.905952459655684939e-01 5.219463736391608856e-03
1.921809749981629011e+03 3.978966160266023677e-01 5.219463736391608856e-03
1.921816311120308683e+03 4.040393943196720627e-01 5.219463736391608856e-03
1.921822902660185719e+03 4.072368012931282255e-01 5.219463736391608856e-03
1.921829538588363903e+03 4.066268990978183506e-01 5.219463736391608856e-03
1.921836054726937618e+03 4.065215984482968281e-01 5.219463736391608856e-03
1.921842765621063108e+03 4.117514512811874527e-01 5.219463736391608856e-03
1.921849257864866786e+03 4.119748239266709522e-01 5.219463736391608856e-03
1.921855940533879220e+03 4.167604580323863162e-01 5.219463736391608856e-03
1.921862484280403351e+03 4.228559865236659610e-01 5.219463736391608856e-03
1.921869091120893245e+03 4.296143132849762347e-01 5.219463736391608856e-03
1.921875710260364940e+03 4.376011795541724370e-01 5.219463736391608856e-03
1.921882241095692052e+03 4.422752292164165988e-01 5.219463736391608856e-03
1.921888935804663788e+03 4.524910019256379590e-01 5.219463736391608856e-03
1.921895427430420114e+03 4.503711656487331405e-01 5.219463736391608856e-03
1.921902123939990133e+03 4.600234318730999084e-01 5.219463736391608856e-03
1.921908652357110213e+03 4.668571949629147233e-01 5.219463736391608856e-03
1.921915272434045846e+03 4.695291527346124871e-01 5.219463736391608856e-03
1.921921876847918838e+03 4.749623994030612861e-01 5.219463736391608856e-03
1.921928420315475250e+03 4.775839119283111778e-01 5.219463736391608856e-03
1.921935100902757085e+03 4.811746136657442108e-01 5.219463736391608856e-03
1.921941591909989256e+03 4.833467103250539409e-01 5.219463736391608856e-03
1.921948300195077536e+03 4.854593489639884574e-01 5.219463736391608856e-03
1.921954815346773103e+03 4.904778504866569300e-01 5.219463736391608856e-03
1.921961446594758627e+03 4.882738844057332162e-01 5.219463736391608856e-03
1.921968038347368292e+03 4.886441895705869731e-01 5.219463736391608856e-03
1.921974592381402772e+03 4.876110555669460611e-01 5.219463736391608856e-03
1.921981260911685240e+03 4.879482128042389455e-01 5.219463736391608856e-03
1.921987751299916681e+03 4.902876429249384271e-01 5.219463736391608856e-03
1.921994469294254486e+03 4.873575185858838310e-01 5.219463736391608856e-03
1.922000973245733576e+03 4.856606391120887323e-01 5.219463736391608856e-03
1.922007613598143507e+03 4.845505640761740285e-01 5.219463736391608856e-03
1.922014194755053268e+03 4.854214179734033241e-01 5.219463736391608856e-03
1.922020757288584946e+03 4.847914684035232735e-01 5.219463736391608856e-03
1.922027415827787763e+03 4.817662713915921158e-01 5.219463736391608856e-03
1.922033905596540762e+03 4.818964048260079291e-01 5.219463736391608856e-03
1.922040631232630631e+03 4.859214976322955293e-01 5.219463736391608856e-03
1.922047126050328643e+03 4.841164425076786570e-01 5.219463736391608856e-03
1.922053773439309225e+03 4.800964901710356170e-01 5.219463736391608856e-03
1.922060346067311912e+03 4.806700660035966854e-01 5.219463736391608856e-03
1.922066915032129145e+03 4.769905020245574501e-01 5.219463736391608856e-03
1.922073565647401665e+03 4.780070313193383047e-01 5.219463736391608856e-03
1.922080056010971020e+03 4.753390922355787973e-01 5.219463736391608856e-03
1.922086784790508318e+03 4.785065405386637050e-01 5.219463736391608856e-03
1.922093273756895314e+03 4.828680547162551573e-01 5.219463736391608856e-03
1.922099926113360880e+03 4.855993809141013196e-01 5.219463736391608856e-03
1.922106492280478733e+03 4.920343800546254087e-01 5.219463736391608856e-03
1.922113065607139333e+03 5.008417482703213519e-01 5.219463736391608856e-03
1.922119710366860318e+03 5.089488689252497089e-01 5.219463736391608856e-03
1.922126204486527968e+03 5.156846969681653237e-01 5.219463736391608856e-03
1.922132928015951620e+03 5.211847579740866987e-01 5.219463736391608856e-03
1.922139416361765143e+03 5.221633799709441970e-01 5.219463736391608856e-03
1.922146071615398796e+03 5.196626506091019948e-01 5.219463736391608856e-03
1.922152633390885740e+03 5.240426517180021282e-01 5.219463736391608856e-03
1.922159209008714924e+03 5.197805628519550636e-01 5.219463736391608856e-03
1.922165849982496184e+03 5.167866155386930949e-01 5.219463736391608856e-03
1.922172345787229915e+03 5.148639104082821660e-01 5.219463736391608856e-03
1.922179066136507572e+03 5.123471841265280213e-01 5.219463736391608856e-03
1.922185553861269455e+03 5.055369287278542734e-01 5.219463736391608856e-03
1.922192209940521479e+03 4.988526536861661587e-01 5.219463736391608856e-03
1.922198769394862893e+03 4.874799422085313028e-01 5.219463736391608856e-03
1.922205345231953970e+03 4.695273094516452250e-01 5.219463736391608856e-03
1.922211984490637406e+03 4.467502460520016427e-01 5.219463736391608856e-03
1.922218479908172185e+03 4.197664950599173661e-01 5.219463736391608856e-03
1.922225199148504316e+03 3.814419650795216610e-01 5.219463736391608856e-03
1.922231686251735937e+03 3.480846014896441520e-01 5.219463736391608856e-03
1.922238341083822661e+03 3.203789852896473667e-01 5.219463736391608856e-03
1.922244900288736972e+03 3.104934544232419436e-01 5.219463736391608856e-03
1.922251474271948609e+03 3.191295132931373235e-01 5.219463736391608856e-03
1.922258113887610307e+03 3.437644739604879818e-01 5.219463736391608856e-03
1.922264606844447599e+03 3.840494056077135010e-01 5.219463736391608856e-03
1.922271327048266585e+03 4.187871868884991411e-01 5.219463736391608856e-03
1.922277813529488867e+03 4.484782064908315324e-01 5.219463736391608856e-03
1.922284465040392888e+03 4.746016248348010613e-01 5.219463736391608856e-03
1.922291026068831798e+03 4.866884836918834445e-01 5.219463736391608856e-03
1.922297596123788253e+03 4.969393420815122475e-01 5.219463736391608856e-03
1.922304238169738028e+03 5.020869452388992960e-01 5.219463736391608856e-03
1.922310726591144203e+03 5.039520677488820155e-01 5.219463736391608856e-03
1.922317449832117518e+03 5.066900800080076372e-01 5.219463736391608856e-03
1.922323935690851158e+03 5.078082547466534757e-01 5.219463736391608856e-03
1.922330581805319298e+03 5.107319886505200524e-01 5.219463736391608856e-03
1.922337146731468692e+03 5.113023979135360442e-01 5.219463736391608856e-03
1.922343710782559128e+03 5.112938470424333026e-01 5.219463736391608856e-03
1.922350357333340753e+03 5.135727873811134492e-01 5.219463736391608856e-03
1.922356842752349849e+03 5.122055372382858796e-01 5.219463736391608856e-03
1.922363563887280407e+03 5.137450894342394658e-01 5.219463736391608856e-03
1.922370052732141176e+03 5.133829261799496280e-01 5.219463736391608856e-03
1.922376691373685389e+03 5.171229265659527119e-01 5.219463736391608856e-03
1.922383262272966931e+03 5.170472400952544900e-01 5.219463736391608856e-03
1.922389818243343825e+03 5.199324179733962881e-01 5.219463736391608856e-03
1.922396471374737757e+03 5.212163614604785611e-01 5.219463736391608856e-03
1.922402956170436482e+03 5.245428989995852831e-01 5.219463736391608856e-03
1.922409668362760385e+03 5.259776694826056032e-01 5.219463736391608856e-03
1.922416164649677057e+03 5.335340642270611777e-01 5.219463736391608856e-03
1.922422793740570569e+03 5.368612799413295944e-01 5.219463736391608856e-03
1.922429372689642832e+03 5.358375935642682997e-01 5.219463736391608856e-03
1.922435918501220840e+03 5.323569577914926132e-01 5.219463736391608856e-03
1.922442580290243086e+03 5.236292820111375645e-01 5.219463736391608856e-03
1.922449064462151910e+03 5.143806917801840850e-01 5.219463736391608856e-03
1.922455765633263354e+03 5.053506215426346593e-01 5.219463736391608856e-03
1.922462271439773303e+03 4.976637113775275179e-01 5.219463736391608856e-03
1.922468888901051287e+03 5.023298618531827353e-01 5.219463736391608856e-03
1.922475477977809305e+03 5.054788802566221317e-01 5.219463736391608856e-03
1.922482011551265259e+03 5.116119505331588879e-01 5.219463736391608856e-03
1.922488684076170330e+03 5.094759241535795624e-01 5.219463736391608856e-03
1.922495167623806992e+03 5.169210266521750974e-01 5.219463736391608856e-03
1.922501855693862808e+03 5.185092050555368814e-01 5.219463736391608856e-03
1.922508373098739867e+03 5.163870301101143312e-01 5.219463736391608856e-03
1.922514976850199673e+03 5.214007386051975335e-01 5.219463736391608856e-03
1.922521578133776757e+03 5.232891302570410463e-01 5.219463736391608856e-03
1.922528097388548531e+03 5.197544750192215623e-01 5.219463736391608856e-03
1.922534782728828759e+03 5.214073574410224010e-01 5.219463736391608856e-03
1.922541265651712592e+03 5.219819260906803926e-01 5.219463736391608856e-03
1.922547938539628831e+03 5.221900977223752349e-01 5.219463736391608856e-03
1.922554469622886018e+03 5.228229968583392173e-01 5.219463736391608856e-03
1.922561057583085358e+03 5.237125153738870775e-01 5.219463736391608856e-03
1.922567673153854230e+03 5.299623793348087197e-01 5.219463736391608856e-03
1.922574176008138920e+03 5.272671632527106134e-01 5.219463736391608856e-03
1.922580876244526280e+03 5.340518113299792535e-01 5.219463736391608856e-03
1.922587358542175707e+03 5.365230361716102347e-01 5.219463736391608856e-03
1.922594014165628778e+03 5.404157529398432303e-01 5.219463736391608856e-03
1.922600561008518753e+03 5.450387756869853328e-01 5.219463736391608856e-03
1.922607131094773422e+03 5.497810705539890597e-01 5.219463736391608856e-03
1.922613763034345538e+03 5.524433661597638601e-01 5.219463736391608856e-03
1.922620247405100145e+03 5.615861700345268215e-01 5.219463736391608856e-03
1.922626964619566252e+03 5.615389111400814759e-01 5.219463736391608856e-03
1.922633446291499467e+03 5.581612458684230837e-01 5.219463736391608856e-03
1.922640082566924548e+03 5.547613806807099035e-01 5.219463736391608856e-03
1.922646647251940522e+03 5.492820487147049846e-01 5.219463736391608856e-03
1.922653197380325537e+03 5.483224762442602263e-01 5.219463736391608856e-03
1.922659847771554723e+03 5.398201712399510743e-01 5.219463736391608856e-03
1.922666329001471468e+03 5.370408391851526630e-01 5.219463736391608856e-03
1.922673030422822649e+03 5.294388699846241941e-01 5.219463736391608856e-03
1.922679528895986095e+03 5.286269459769339374e-01 5.219463736391608856e-03
1.922686143738575538e+03 5.240184924191535476e-01 5.219463736391608856e-03
1.922692728349452636e+03 5.220192342923706263e-01 5.219463736391608856e-03
1.922699256434800418e+03 5.158406912475901329e-01 5.219463736391608856e-03
1.922705927361781050e+03 5.115496015574465538e-01 5.219463736391608856e-03
1.922712407965156444e+03 5.049838444601040255e-01 5.219463736391608856e-03
1.922719086478079362e+03 5.055093470295886071e-01 5.219463736391608856e-03
1.922725606351933948e+03 5.014088032764467684e-01 5.219463736391608856e-03
1.922732197675637735e+03 4.986583591242721436e-01 5.219463736391608856e-03
1.922738804297352544e+03 4.931717742790947545e-01 5.219463736391608856e-03
1.922745308253252460e+03 4.888630030544532934e-01 5.219463736391608856e-03
1.922752001801321967e+03 4.785883306204475884e-01 5.219463736391608856e-03
1.922758481777672841e+03 4.632528560495002834e-01 5.219463736391608856e-03
1.922765135295233677e+03 4.468585026240238234e-01 5.219463736391608856e-03
1.922771678655639334e+03 4.252980682223433395e-01 5.219463736391608856e-03
1.922778244373162579e+03 3.945255073898841225e-01 5.219463736391608856e-03
1.922784875091935874e+03 3.551557320078246871e-01 5.219463736391608856e-03
1.922791354625341683e+03 3.070464645172432672e-01 5.219463736391608856e-03
1.922798069291815182e+03 2.560462647168343375e-01 5.219463736391608856e-03
1.922804550435314695e+03 2.136241489222057144e-01 5.219463736391608856e-03
1.922811176869334986e+03 1.923706704835267678e-01 5.219463736391608856e-03
1.922817745803395837e+03 1.921033955664071258e-01 5.219463736391608856e-03
1.922824283826199007e+03 2.244789666188611310e-01 5.219463736391608856e-03
1.922830940729495296e+03 2.769774737108745555e-01 5.219463736391608856e-03
1.922837419635050082e+03 3.374990883007595865e-01 5.219463736391608856e-03
1.922844105739995030e+03 3.908640856913989103e-01 5.219463736391608856e-03
1.922850613934373541e+03 4.323612594161165834e-01 5.219463736391608856e-03
1.922857211195429500e+03 4.633881715720293837e-01 5.219463736391608856e-03
1.922863807791493400e+03 4.867127646143010189e-01 5.219463736391608856e-03
1.922870316029791638e+03 4.997898988768360029e-01 5.219463736391608856e-03
1.922877001206319164e+03 5.110327320328306167e-01 5.219463736391608856e-03
1.922883479483539531e+03 5.192211907084254285e-01 5.219463736391608856e-03
1.922890134936646746e+03 5.258506293496355566e-01 5.219463736391608856e-03
1.922896672271137959e+03 5.285407225215090765e-01 5.219463736391608856e-03
1.922903238268558198e+03 5.298065041540596098e-01 5.219463736391608856e-03
1.922909864616220148e+03 5.290059338045294268e-01 5.219463736391608856e-03
1.922916342449564581e+03 5.260900778791981480e-01 5.219463736391608856e-03
1.922923055048076321e+03 5.208101557082128741e-01 5.219463736391608856e-03
1.922929534167097700e+03 5.093994955772631616e-01 5.219463736391608856e-03
1.922936156876810855e+03 4.911198533177623671e-01 5.219463736391608856e-03
1.922942725441893799e+03 4.762829867038418374e-01 5.219463736391608856e-03
1.922949258083761606e+03 4.615748530659095072e-01 5.219463736391608856e-03
1.922955916273861931e+03 4.606699412093757662e-01 5.219463736391608856e-03
1.922962393478042713e+03 4.610661524562165159e-01 5.219463736391608856e-03
1.922969071852772231e+03 4.732240955162664298e-01 5.219463736391608856e-03
1.922975583682008619e+03 4.871578545663567406e-01 5.219463736391608856e-03
1.922982171555523792e+03 5.016179131190677820e-01 5.219463736391608856e-03
1.922988773442924412e+03 5.092904107882099130e-01 5.219463736391608856e-03
1.922995270636073656e+03 5.157561153223578776e-01 5.219463736391608856e-03
1.923001962760700280e+03 5.157880606008752311e-01 5.219463736391608856e-03
1.923008439335232879e+03 5.177440924596854455e-01 5.219463736391608856e-03
1.923015081392489037e+03 5.160563994188042125e-01 5.219463736391608856e-03
1.923021628024553365e+03 5.183911118177746413e-01 5.219463736391608856e-03
1.923028178967816984e+03 5.230866250050039135e-01 5.219463736391608856e-03
1.923034816270510646e+03 5.268036456528855105e-01 5.219463736391608856e-03
1.923041292400235079e+03 5.272351177888021656e-01 5.219463736391608856e-03
1.923047987592878371e+03 5.289298122252550360e-01 5.219463736391608856e-03
1.923054480017414789e+03 5.271636808252215811e-01 5.219463736391608856e-03
1.923061083662257261e+03 5.227152460332751271e-01 5.219463736391608856e-03
1.923067667191010059e+03 5.169606817609748717e-01 5.219463736391608856e-03
1.923074179108719591e+03 5.119995000392056905e-01 5.219463736391608856e-03
1.923080853920930622e+03 5.059540725307135611e-01 5.219463736391608856e-03
