# Wlen(nm) Transmission Continuum
1.921314445004276649e+03 9.576682862836090150e-06 1.231711136606164825e+00
1.921320944237575986e+03 1.267247242724354171e-05 1.236290221427740699e+00
1.921327679436723429e+03 1.727478583182340510e-05 1.241024798795245632e+00
1.921334187573909958e+03 2.361024594969846955e-05 1.245589367053941521e+00
1.921340853822876397e+03 3.192555463606736954e-05 1.250254248434017557e+00
1.921347430482246864e+03 4.252794716622116799e-05 1.254845954213732462e+00
1.921354027606926138e+03 5.573668610327064949e-05 1.259441497669051557e+00
1.921360672962498029e+03 7.189862008058309380e-05 1.264060066483966072e+00
1.921367200788753962e+03 9.139088433203795445e-05 1.268586630447115837e+00
1.921373915014575005e+03 1.146330613449508188e-04 1.273231787426754025e+00
1.921380413496613983e+03 1.420805177219932008e-04 1.277717398484943701e+00
1.921387116508966301e+03 1.741274107976379260e-04 1.282333596817907706e+00
1.921393654941845398e+03 2.110777964930929146e-04 1.286826101041381509e+00
1.921400288234408890e+03 2.530483454957671075e-04 1.291373345295634412e+00
1.921406895958685254e+03 2.999844025062092909e-04 1.295892620143475948e+00
1.921413459357220290e+03 3.516548040635023215e-04 1.300371271617866586e+00
1.921420136547046013e+03 4.076887925863594627e-04 1.304917039304387849e+00
1.921426634421848348e+03 4.675796835342617202e-04 1.309330542903359262e+00
1.921433372162154910e+03 5.305745846046358788e-04 1.313896365961903623e+00
1.921439874402919486e+03 5.956667904140807704e-04 1.318292377280582350e+00
1.921446541827580859e+03 6.614933199988510702e-04 1.322789645709789408e+00
1.921453113955293929e+03 7.263419091772568403e-04 1.327212319466919643e+00
1.921459710889967710e+03 7.880263120757839907e-04 1.331641397361543078e+00
1.921466353078882776e+03 8.438561258026058874e-04 1.336090452924710403e+00
1.921472879349198138e+03 8.907043251882355807e-04 1.340451704703783831e+00
1.921479591773597576e+03 9.250683091414536744e-04 1.344926861102277549e+00
1.921486088861830240e+03 9.432229298326623261e-04 1.349248327270501147e+00
1.921492788381580567e+03 9.413852910671299118e-04 1.353694017111078729e+00
1.921499326948683574e+03 9.161093609847979552e-04 1.358022708197555328e+00
1.921505955382133152e+03 8.650768992161896780e-04 1.362400625034466017e+00
1.921512564606445494e+03 7.879733113840935036e-04 1.366755571436874206e+00
1.921519121779119814e+03 6.874642753995464190e-04 1.371066082393315178e+00
1.921525801835027096e+03 5.696944636990432850e-04 1.375447000386362806e+00
1.921532298314936270e+03 4.442163986712796271e-04 1.379697493295440891e+00
1.921539027891543583e+03 3.228607063227933397e-04 1.384090074780609747e+00
1.921545534935212117e+03 2.169316667161062199e-04 1.388327328023679419e+00
1.921552192828850593e+03 1.340904256846627159e-04 1.392652569074318558e+00
1.921558771126090505e+03 7.627000095860891101e-05 1.396915935932108166e+00
1.921565357162181954e+03 4.036347892444298391e-05 1.401174206304716119e+00
1.921572006887481621e+03 2.080087229071887457e-05 1.405463400368180515e+00
1.921578520891420339e+03 1.210209843266270498e-05 1.409655070097665108e+00
1.921585242219297925e+03 1.027245246921853849e-05 1.413969804666003416e+00
1.921591737911233622e+03 1.252033429438979472e-05 1.418129718574290266e+00
1.921598423225249689e+03 1.640285318599629203e-05 1.422400840996686622e+00
1.921604972634170736e+03 1.936883766256779031e-05 1.426575085442973068e+00
1.921611585493513530e+03 1.948432266809131737e-05 1.430779687109604570e+00
1.921618206927314759e+03 1.651217142671843256e-05 1.434979599484401458e+00
1.921624747157274669e+03 1.190996572980223590e-05 1.439118052972119699e+00
1.921631440790576789e+03 7.508978328679888537e-06 1.443343343982164573e+00
1.921637935873100787e+03 4.275485533638460309e-06 1.447433417419308643e+00
1.921644646566457141e+03 2.214628769879577231e-06 1.451649049393813229e+00
1.921651169127038884e+03 9.946559068828039025e-07 1.455736556942230031e+00
1.921657806768240789e+03 3.520790053812956438e-07 1.459886132555585636e+00
1.921664401950876936e+03 8.541494098215419230e-08 1.463999134109742695e+00
1.921670966365111326e+03 1.140299742913062650e-08 1.468083028409827850e+00
1.921677634344526496e+03 7.838342638438201338e-10 1.472221232155299209e+00
1.921684128817161536e+03 1.113010210353143897e-10 1.476241960065328485e+00
1.921690862847596236e+03 6.691559665353117206e-11 1.480400799931735456e+00
1.921697360601042192e+03 2.443054313184548810e-10 1.484403885339021345e+00
1.921704020981484518e+03 5.267454566658167921e-09 1.488497147462439996e+00
1.921710591954515849e+03 6.311779532495294780e-08 1.492525538555870668e+00
1.921717178510049962e+03 4.360194360855873605e-07 1.496553600384952665e+00
1.921723822877493603e+03 2.090435930923384950e-06 1.500607002898603826e+00
1.921730335433173423e+03 7.624267386050838136e-06 1.504570242092194921e+00
1.921737053369886098e+03 2.268258007604670670e-05 1.508648361535545490e+00
1.921743547052526992e+03 5.817193749012672350e-05 1.512580603478592245e+00
1.921750228128363005e+03 1.326001753631879984e-04 1.516616333721818366e+00
1.921756776934576010e+03 2.750823256937500252e-04 1.520562345068749321e+00
1.921763383587207500e+03 5.248034823629451695e-04 1.524533369942199901e+00
1.921770006385822171e+03 9.271841438901022581e-04 1.528504187859829333e+00
1.921776538440199147e+03 1.524774968386629140e-03 1.532410887331129956e+00
1.921783235406175436e+03 2.348717289582896890e-03 1.536406214969517681e+00
1.921789728477835752e+03 3.415258936063415157e-03 1.540270242138807477e+00
1.921796428203991809e+03 4.723213318332956760e-03 1.544247290294365804e+00
1.921802956887400342e+03 6.257063328040417087e-03 1.548113083828156711e+00
1.921809581591698134e+03 7.988215592643801988e-03 1.552025935195311623e+00
1.921816184865853756e+03 9.883522055014516000e-03 1.555916316619021744e+00
1.921822734373140747e+03 1.191140595028988315e-02 1.559765353403712584e+00
1.921829412413107093e+03 1.404371242045882560e-02 1.563680023579466560e+00
1.921835904873310255e+03 1.625613412726844773e-02 1.567476330030322051e+00
1.921842621203481713e+03 1.852468031259062523e-02 1.571393613206389039e+00
1.921849131809327901e+03 2.082932284599277664e-02 1.575181282943694416e+00
1.921855772518631966e+03 2.315181810451171981e-02 1.579034891323037648e+00
1.921862358313927189e+03 2.547842732810240082e-02 1.582846916686418970e+00
1.921868923227107416e+03 2.779811938359275092e-02 1.586637234641470107e+00
1.921875584387018534e+03 3.010174910941513030e-02 1.590473314275573369e+00
1.921882076235286831e+03 3.238149797270942210e-02 1.594202393791687378e+00
1.921888807121940090e+03 3.462946889013070878e-02 1.598058895548531311e+00
1.921895301696695924e+03 3.684221795358755963e-02 1.601770468454931429e+00
1.921901956363115232e+03 3.901529692362022683e-02 1.605563830567806161e+00
1.921908526726378568e+03 4.114316733892213473e-02 1.609299513500611178e+00
1.921915104997204935e+03 4.321681024489490430e-02 1.613030122438538605e+00
1.921921751324245406e+03 4.522960850213864764e-02 1.616789611895932399e+00
1.921928253024089145e+03 4.718161121088162296e-02 1.620457854250296093e+00
1.921934975490207307e+03 4.907760060126241386e-02 1.624240846592998277e+00
1.921941466545837784e+03 5.093174570141160984e-02 1.627884164327094707e+00
1.921948133120251214e+03 5.276593304596725875e-02 1.631616342233682904e+00
1.921954690099541040e+03 5.460644461149354728e-02 1.635277630426563045e+00
1.921961279678534083e+03 5.646372886837938698e-02 1.638947605248786132e+00
1.921967913221119716e+03 5.831912917135584351e-02 1.642632439204070538e+00
1.921974425629200368e+03 6.013058144640635178e-02 1.646240599538443483e+00
1.921981135910485591e+03 6.184909733663572495e-02 1.649948673561898449e+00
1.921987626353086398e+03 6.343544625745668741e-02 1.653525892451890744e+00
1.921994302785138871e+03 6.485840911890738969e-02 1.657196012683079589e+00
1.922000848429745474e+03 6.609327549825567971e-02 1.660784788753634444e+00
1.922007447266193822e+03 6.711668297569414743e-02 1.664393268585550034e+00
1.922014070073972334e+03 6.790646134530833877e-02 1.668005316888087730e+00
1.922020591139220414e+03 6.844260915509053911e-02 1.671552546850387788e+00
1.922027291285677165e+03 6.870984550295461402e-02 1.675187559706427187e+00
1.922033781114768772e+03 6.874314424795091583e-02 1.678699172642272419e+00
1.922040465352873298e+03 6.870024991245674006e-02 1.682306425335008182e+00
1.922047001713319787e+03 6.889308982653763458e-02 1.685824507693480800e+00
1.922053607755278563e+03 6.964777596855803443e-02 1.689370695017588186e+00
1.922060221879129131e+03 7.106183752530721709e-02 1.692911763556948834e+00
1.922066749549242559e+03 7.290473432723207359e-02 1.696397277904098999e+00
1.922073441612108354e+03 7.476179512572884989e-02 1.699961023033912388e+00
1.922079930827212365e+03 7.628305812811932152e-02 1.703407522633793914e+00
1.922086620818547090e+03 7.730324426238754931e-02 1.706951160663510603e+00
1.922093149946589165e+03 7.784437958165071891e-02 1.710400304378315584e+00
1.922099761140878627e+03 7.810416619211606182e-02 1.713883464167200721e+00
1.922106368632915974e+03 7.841982344209411093e-02 1.717355295740568444e+00
1.922112900854355757e+03 7.912158452473119774e-02 1.720778371470683688e+00
1.922119586886103207e+03 8.032765214980047697e-02 1.724272579470609079e+00
1.922126075486739182e+03 8.187103119486956182e-02 1.727654458079592059e+00
1.922132769177248520e+03 8.341776303831476003e-02 1.731133796194514574e+00
1.922139293125876065e+03 8.465485034460046299e-02 1.734515693858571517e+00
1.922145907418081833e+03 8.537311106347347800e-02 1.737935152708770303e+00
1.922152510331653730e+03 8.543310693585862148e-02 1.741339427885557622e+00
1.922159045049648057e+03 8.470931445619178657e-02 1.744699403372894864e+00
1.922165727103982135e+03 8.306728375093333505e-02 1.748125742859861775e+00
1.922172215089670772e+03 8.036660755825537905e-02 1.751443492551030490e+00
1.922178910424061542e+03 7.647099689779161824e-02 1.754857906503117793e+00
1.922185431247500446e+03 7.125692564689392605e-02 1.758174189101389562e+00
1.922192046581971908e+03 6.465854420083759491e-02 1.761529334365522281e+00
1.922198646971661447e+03 5.672166170927661621e-02 1.764867672355142636e+00
1.922205182130200683e+03 4.767518084986346188e-02 1.768163946480871163e+00
1.922211862262063732e+03 3.799532754546565416e-02 1.771524024960810184e+00
1.922218349632324362e+03 2.841867584852277029e-02 1.774778137533602695e+00
1.922225044554067836e+03 1.984914142787038913e-02 1.778127063212698200e+00
1.922231564307778854e+03 1.310904723378208958e-02 1.781379300987945946e+00
1.922238178627628258e+03 8.710845720140154153e-03 1.784669579907160797e+00
1.922244778549254988e+03 6.827152065255317169e-03 1.787943539425902451e+00
1.922251312091093496e+03 7.475218076124970530e-03 1.791175570711821985e+00
1.922257992356663181e+03 1.070075227155726540e-02 1.794470935445483750e+00
1.922264479111016044e+03 1.654645225021464383e-02 1.797661902426557212e+00
1.922271171562344989e+03 2.488004589793227708e-02 1.800944834991907495e+00
1.922277692303026015e+03 3.525809345022613145e-02 1.804134538312486047e+00
1.922284303550126651e+03 4.693035879366600632e-02 1.807359457148056681e+00
1.922290905060748855e+03 5.901388294882587565e-02 1.810570537287237158e+00
1.922297434927401127e+03 7.071101127755566318e-02 1.813737843026051788e+00
1.922304117384093388e+03 8.147864172992991261e-02 1.816969981897393893e+00
1.922310603522056226e+03 9.105919385719558889e-02 1.820098294539136630e+00
1.922317291443966269e+03 9.938958615306398015e-02 1.823314787551747251e+00
1.922323815229554157e+03 1.065249126574782795e-01 1.826443407779536621e+00
1.922330421344541946e+03 1.125687511333851032e-01 1.829602530946337957e+00
1.922337026502453000e+03 1.176461839638863055e-01 1.832752172037391158e+00
1.922343550634195481e+03 1.218704071097791719e-01 1.835854327426232890e+00
1.922350237340664307e+03 1.253130538219733303e-01 1.839024669809427248e+00
1.922356722861756452e+03 1.279947999772793887e-01 1.842090819090997478e+00
1.922363404194002214e+03 1.298899307123043412e-01 1.845240483644489338e+00
1.922369933083670276e+03 1.309649124628338157e-01 1.848309414001311657e+00
1.922376532005941954e+03 1.311860042323252928e-01 1.851402363198345391e+00
1.922383142870676238e+03 1.305519433970993015e-01 1.854491947683226005e+00
1.922389659206544593e+03 1.291933207928486482e-01 1.857528584954123207e+00
1.922396352222682708e+03 1.274933531053300539e-01 1.860638502581649201e+00
1.922402837126422810e+03 1.259304679770044677e-01 1.863642979208040451e+00
1.922409509807519271e+03 1.246032934810517440e-01 1.866725483060516888e+00
1.922416045861682278e+03 1.229601728471255706e-01 1.869736059497951075e+00
1.922422635529391755e+03 1.200974083693738953e-01 1.872762512838658688e+00
1.922429254161722611e+03 1.153425962030779073e-01 1.875793366137048057e+00
1.922435760639513319e+03 1.086735189346303143e-01 1.878764173688811434e+00
1.922442462026454223e+03 1.009401612365404682e-01 1.881814981519939867e+00
1.922448946312359794e+03 9.402875524879446278e-02 1.884758275921505799e+00
1.922455608279579792e+03 9.044925709728278418e-02 1.887773342626164697e+00
1.922462153559892386e+03 9.201571703212345354e-02 1.890726844692889319e+00
1.922468731909954158e+03 9.864871540630673619e-02 1.893686535837964646e+00
1.922475360371896159e+03 1.084782564950288186e-01 1.896659927215764707e+00
1.922481854928161056e+03 1.191452437078963783e-01 1.899564648743416129e+00
1.922488566748279709e+03 1.289936064838375640e-01 1.902557605832968068e+00
1.922495050415868263e+03 1.373301969349585983e-01 1.905440208165469551e+00
1.922501699605244085e+03 1.441214273541208402e-01 1.908387616202331438e+00
1.922508256174602366e+03 1.496322249104342361e-01 1.911285267913044983e+00
1.922514821142686060e+03 1.541710087077852176e-01 1.914177985199041476e+00
1.922521461497495920e+03 1.579719207501088796e-01 1.917095128637556822e+00
1.922527944728323291e+03 1.611891987389400815e-01 1.919934725935733999e+00
1.922534663723611402e+03 1.639248543512432377e-01 1.922868712505742872e+00
1.922541149433247028e+03 1.662437100674411805e-01 1.925692272775358926e+00
1.922547783779565862e+03 1.681736171194374296e-01 1.928571854679999031e+00
1.922554353702108983e+03 1.697436006392277763e-01 1.931414825385100897e+00
1.922560903222642992e+03 1.709972726778793140e-01 1.934240410956587164e+00
1.922567557534818661e+03 1.719820519524636326e-01 1.937102466020817815e+00
1.922574040146503421e+03 1.727354385840610962e-01 1.939882210431120857e+00
1.922580742837028993e+03 1.732827962805510436e-01 1.942747553841978281e+00
1.922587243360792399e+03 1.736440701107168083e-01 1.945517964485937057e+00
1.922593860797598381e+03 1.738325908457299396e-01 1.948329605980917867e+00
1.922600446138707866e+03 1.738555924131540698e-01 1.951119011234623057e+00
1.922606978144875029e+03 1.737134133519228352e-01 1.953877360173232658e+00
1.922613648480160236e+03 1.733988821163948979e-01 1.956685432882506293e+00
1.922620130472218989e+03 1.728969146775959642e-01 1.959405813815014330e+00
1.922626814790640537e+03 1.721878991337070230e-01 1.962202442924119605e+00
1.922633332194797504e+03 1.712516631831502989e-01 1.964920775928638452e+00
1.922639930654389445e+03 1.700686833569887979e-01 1.967664415053132831e+00
1.922646533480691915e+03 1.686211304897683450e-01 1.970401317484032244e+00
1.922653045904429973e+03 1.669035663521136192e-01 1.973092376938142545e+00
1.922659734329810590e+03 1.649416631962414281e-01 1.975847520634445242e+00
1.922666215701758802e+03 1.627800403630534076e-01 1.978509027223162686e+00
1.922672879579491109e+03 1.604340706555587581e-01 1.981236922584195481e+00
1.922679415931552512e+03 1.578428803344963105e-01 1.983904197630252053e+00
1.922685993344984126e+03 1.548786778172192846e-01 1.986579823869297989e+00
1.922692615724349253e+03 1.513964452907904379e-01 1.989265234049314879e+00
1.922699106496350169e+03 1.472646352886036736e-01 1.991889002364071404e+00
1.922705815080059665e+03 1.423700284134737926e-01 1.994592218583228771e+00
1.922712295831413712e+03 1.366004562950163814e-01 1.997195339686912208e+00
1.922718937198624417e+03 1.298563688346344447e-01 1.999854532677930896e+00
1.922725494567345550e+03 1.220372378159804011e-01 2.002471718010724988e+00
1.922732048864422495e+03 1.130408316596246965e-01 2.005079371424391965e+00
1.922738692865968687e+03 1.027892913200195851e-01 2.007714248740331442e+00
1.922745173178944924e+03 9.128463797584350503e-02 2.010276009482250714e+00
1.922751877463574601e+03 7.869047215206602386e-02 2.012917796045778029e+00
1.922758370857468208e+03 6.534879997814467545e-02 2.015468238127872347e+00
1.922764987643077575e+03 5.180589611050381155e-02 2.018058810080904042e+00
1.922771568098460875e+03 3.878885904866309631e-02 2.020626823380902159e+00
1.922778097207741439e+03 2.712574747728029034e-02 2.023166593733429330e+00
1.922784764901833114e+03 1.755058927500006971e-02 2.025751847256440641e+00
1.922791244593386637e+03 1.044337348378634664e-02 2.028256059472931305e+00
1.922797922830538710e+03 5.727184207911329393e-03 2.030828609942862073e+00
1.922804440776205411e+03 2.980685681193790022e-03 2.033331207357945480e+00
1.922811030907885197e+03 1.719736188890829114e-03 2.035853288687280660e+00
1.922817636521181385e+03 1.630086667573552636e-03 2.038372997941059861e+00
1.922824138369975117e+03 2.669233799969926262e-03 2.040845023829426008e+00
1.922830831828223381e+03 5.067531151298833823e-03 2.043381513185789533e+00
1.922837310897869202e+03 9.216561463714871907e-03 2.045828664986057976e+00
1.922843961014328897e+03 1.543820792879828201e-02 2.048332149983472128e+00
1.922850505583905260e+03 2.373450400803069071e-02 2.050787730076512716e+00
1.922857066988078714e+03 3.365570814546203077e-02 2.053241499407837178e+00
1.922863699831785425e+03 4.439796486239367540e-02 2.055713723778209712e+00
1.922870178462119839e+03 5.502231940477297911e-02 2.058120460042347055e+00
1.922876887525291522e+03 6.464833053950683195e-02 2.060604467393067907e+00
1.922883372088672104e+03 7.256299383880000786e-02 2.062997307220034493e+00
1.922889992009974094e+03 7.823491920645754549e-02 2.065431944954722265e+00
1.922896565276845422e+03 8.132254287070678211e-02 2.067841286868867812e+00
1.922903095878684326e+03 8.166746251116845101e-02 2.070226970166479052e+00
1.922909758026551117e+03 7.924885775384074571e-02 2.072652480865192715e+00
1.922916236034147232e+03 7.414937984732575260e-02 2.075002992389761047e+00
1.922922913433879330e+03 6.662495292940461000e-02 2.077417649166385605e+00
1.922929428162069826e+03 5.728738332898124230e-02 2.079765465256486312e+00
1.922936015812497999e+03 4.726342469194764334e-02 2.082131520655308154e+00
1.922942619851300833e+03 3.811185200209440960e-02 2.084495356204029370e+00
1.922949117574726415e+03 3.149799049145835667e-02 2.086813225899290636e+00
1.922955811101751124e+03 2.879188655724337562e-02 2.089192747057099009e+00
1.922962288486122588e+03 3.076867399495194361e-02 2.091487521200021682e+00
1.922968932145810413e+03 3.747473204400201402e-02 2.093833130847536861e+00
1.922975479114335485e+03 4.822770582778918708e-02 2.096136616060016777e+00
1.922982032416922038e+03 6.176712721900280006e-02 2.098434399894296476e+00
1.922988669303543929e+03 7.658230096675087972e-02 2.100753414432735333e+00
1.922995146247669254e+03 9.129905867336662872e-02 2.103008716419735524e+00
1.923001844876838732e+03 1.049310987024609371e-01 2.105333087598392439e+00
1.923008335814317434e+03 1.169437478243447043e-01 2.107577521932284093e+00
1.923014943656103469e+03 1.271550769439933615e-01 2.109854433117721584e+00
1.923021524941738789e+03 1.356246868143778928e-01 2.112114234475359176e+00
1.923028041818263318e+03 1.425388859887370407e-01 2.114344102488164623e+00
1.923034713629842372e+03 1.481269907869265934e-01 2.116618935784904565e+00
1.923041189949911313e+03 1.526222818116759194e-01 2.118819334780580377e+00
1.923047851290486506e+03 1.562236574547725965e-01 2.121074611347430139e+00
1.923054378014999429e+03 1.590959834638003279e-01 2.123276467924100519e+00
1.923060947959772875e+03 1.613631117730122133e-01 2.125485073663521796e+00
